'Id: "" Comment: "" Operator: "Lab Manager" Anode: "Cu" Scantype: "Coupled TwoTheta/Theta" TimePerStep: "768" 
2.00009989738464 0
2.02057383581996 -0.0321136121203587
2.04104777425528 -0.0811376593818514
2.06152171269059 0.0160647834373959
2.08199565112591 -0.127601542217824
2.10246958956122 -0.0175706360442591
2.12294352799654 -0.0286168316784963
2.14341746643186 -0.00188596245386652
2.16389140486717 -0.0636801117037056
2.18436534330249 -0.0798846960946769
2.2048392817378 0.0459334487668652
2.22531322017312 0.257705741820605
2.24578715860844 0.0840780163998787
2.26626109704375 -0.0608872274953143
2.28673503547907 -0.079533739864976
2.30720897391438 0.0361380031980891
2.3276829123497 -0.00181943887997882
2.34815685078502 0.0344585172341514
2.36863078922033 0.0512218715404815
2.38910472765565 -0.0218418759609884
2.40957866609097 0.00276727472973981
2.43005260452628 0.057340990279334
2.4505265429616 -0.0794748959788718
2.47100048139691 0.0571633659551205
2.49147441983223 0.150849526081313
2.51194835826755 -0.0249789156002951
2.53242229670286 -0.0484469590897048
2.55289623513818 0.0583099789464185
2.57337017357349 0.0257606485080748
2.59384411200881 0.0674467162619301
2.61431805044413 0.0297223488746505
2.63479198887944 0.0571187963462378
2.65526592731476 0.0350527253433572
2.67573986575007 0.0520658025326766
2.69621380418539 -0.204341972085806
2.71668774262071 -0.0206289318454216
2.73716168105602 -0.166326326746172
2.75763561949134 0.0278366765452764
2.77810955792665 0.0748809113622579
2.79858349636197 0.00475429437143937
2.81905743479729 -0.109626507760513
2.8395313732326 0.0116864216330663
2.86000531166792 0.0614014158855118
2.88047925010324 -0.124544025003178
2.90095318853855 0.047600098967
2.92142712697387 -0.0328432955372913
2.94190106540918 0.0416778748172852
2.9623750038445 0.0341844433640599
2.98284894227982 0.0879055767697006
3.00332288071513 0.00362252503420724
3.02379681915045 0.0769082048242469
3.04427075758576 0.0134917828064856
3.06474469602108 0.11285242564759
3.0852186344564 0.05467763334756
3.10569257289171 0.00433198923972977
3.12616651132703 -0.0863615900092336
3.14664044976234 0.151086478934
3.16711438819766 0.100790779402768
3.18758832663298 0.105199228063734
3.20806226506829 0.0249889082502337
3.22853620350361 0.00859731996226554
3.24901014193892 0.147170296533163
3.26948408037424 0.13732242129626
3.28995801880956 -0.0404775557484438
3.31043195724487 0.0616870320657181
3.33090589568019 0.201628684738747
3.35137983411551 0.229607818937307
3.37185377255082 0.1182806846614
3.39232771098614 0.158011865244359
3.41280164942145 0.0545305273528518
3.43327558785677 0.0135658376535419
3.45374952629209 -0.0377988705202341
3.4742234647274 0.054082236164855
3.49469740316272 0.099104991042144
3.51517134159803 0.309508977444965
3.53564528003335 0.211335862039986
3.55611921846867 0.292866894827205
3.57659315690398 0.202539575806624
3.5970670953393 0.280197654978243
3.61754103377461 0.234174465675394
3.63801497220993 0.310563757898077
3.65848891064525 0.280198864979626
3.67896284908056 0.367038120253375
3.69943678751588 0.349727357052656
3.71991072595119 0.721756158710803
3.74038466438651 0.515676608561149
3.76085860282183 0.563519956603695
3.78133254125714 0.788463286171774
3.80180647969246 0.656652430598718
3.82228041812778 0.644649889884527
3.84275435656309 0.80974733069587
3.86322829499841 0.983976003032746
3.88370223343372 1.12957549022849
3.90417617186904 1.10461870894976
3.92465011030436 1.20598065919657
3.94512404873967 1.55735925763557
3.96559798717499 1.85406700426678
3.9860719256103 2.11693723242351
4.00654586404562 2.40065744210578
4.02701980248094 2.42788388331359
4.04749374091625 3.04497072271359
4.06796767935157 3.78837629363912
4.08844161778688 4.38075684609019
4.1089155562222 4.89633113006679
4.12938949465752 5.10463039556892
4.14986343309283 4.66190464259658
4.17033737152815 3.71919553781645
4.19081130996346 2.60853433122851
4.21128524839878 1.79606685616611
4.2317591868341 1.53309519596257
4.25223312526941 1.24279643395123
4.27270706370473 0.903035153465424
4.29318100214005 0.87318635450515
4.31365494057536 0.744395870403741
4.33412887901068 0.728903284494533
4.35460281744599 0.596239846777523
4.37507675588131 0.641978473919379
4.39555069431663 0.700754582586769
4.41602463275194 0.50694317277969
4.43649857118726 0.577471327831477
4.45697250962257 0.56077654774213
4.47744644805789 0.387848415844983
4.49792038649321 0.527436932140034
4.51839432492852 0.641000429960619
4.53886826336384 0.581403492640069
4.55934220179915 0.495781536845053
4.57981614023447 0.423197062575568
4.60029007866979 0.59542090316495
4.6207640171051 0.692140558613197
4.64123795554042 0.452939362253643
4.66171189397573 0.65516106408629
4.68218583241105 0.719378580777801
4.70265977084637 0.516685662328178
4.72313370928168 0.648644808737422
4.743607647717 0.492860186672198
4.76408158615232 0.48032137946584
4.78455552458763 0.668320053785014
4.80502946302295 0.508679126296388
4.82550340145826 0.655044430333295
4.84597733989358 0.442051382562401
4.8664512783289 0.699127066317039
4.88692521676421 0.646323564930543
4.90739915519953 0.59093254506958
4.92787309363484 0.644933173400816
4.94834703207016 0.713273366590918
4.96882097050548 0.682671874639886
4.98929490894079 0.692451614214387
5.00976884737611 0.721779251981086
5.03024278581142 0.726383954606652
5.05071672424674 0.758349055424416
5.07119066268206 0.687466221101046
5.09166460111737 0.767641701636544
5.11213853955269 0.905125497030906
5.132612477988 0.922834273950802
5.15308641642332 0.953580532396229
5.17356035485864 0.993458022367189
5.19403429329395 1.05418549386368
5.21450823172927 1.19696086355238
5.23498217016459 1.41266954809993
5.2554561085999 1.29896779750636
5.27593004703522 1.48997019510498
5.29640398547053 1.6380204908958
5.31687792390585 1.77957701821216
5.33735186234117 2.04484811038738
5.35782580077648 2.30362543408813
5.3782997392118 2.62491940598108
5.39877367764711 3.13763627606624
5.41924761608243 3.62172396101026
5.43972155451775 4.10973454414647
5.46019549295306 5.10557427547489
5.48066943138838 5.93867023832884
5.50114336982369 7.17282451604165
5.52161730825901 8.46298502528
5.54209124669433 10.2961309327105
5.56256518512964 10.522522655
5.58303912356496 9.53538935881491
5.60351306200027 7.21233521082205
5.62398700043559 5.02080812768806
5.64446093887091 3.26940185941294
5.66493487730622 2.24587682266334
5.68540881574154 1.64033718410595
5.70588275417686 1.42934544374076
5.72635669261217 1.1806099349011
5.74683063104749 1.24048482425364
5.7673045694828 1.13501177846505
5.78777850791812 1.11288871420198
5.80825244635344 0.998334381464453
5.82872638478875 1.05176544691912
5.84920032322407 1.04661941056599
5.86967426165938 1.04539627240506
5.8901482000947 0.932210615769661
5.91062213853002 1.04690619065979
5.93109607696533 0.96370174707546
5.95157001540065 0.927388951683325
5.97204395383596 1.02650947115006
5.99251789227128 0.818354972142319
6.0129918307066 1.03599837132678
6.03346576914191 0.929439668703444
6.05393970757723 0.955710114272305
6.07441364601254 0.941632624700033
6.09488758444786 0.870280116653293
6.11536152288318 0.938267173465418
6.13583546131849 0.984135461803076
6.15630939975381 0.932364148332934
6.17678333818913 0.971755316388324
6.19725727662444 0.809340215969247
6.21773121505976 0.894337597075702
6.23820515349507 0.96502870970769
6.25867909193039 0.932871887198544
6.27915303036571 0.813492129548263
6.29962696880102 0.925899853423515
6.32010090723634 1.1529075588243
6.34057484567165 1.14685899575062
6.36104878410697 1.34134791420247
6.38152272254229 1.16215556417985
6.4019966609776 1.2551152790161
6.42247059941292 1.19835205871121
6.44294453784823 1.36165756993186
6.46341847628355 1.35701097934471
6.48389241471887 1.36670395361642
6.50436635315418 1.832142742747
6.5248402915895 1.82233776340311
6.54531423002481 2.03911193225142
6.56578816846013 2.32751733262526
6.58626210689545 2.6940643811913
6.60673604533076 3.05411766128288
6.62720998376608 3.65377092289998
6.6476839222014 4.12193041604262
6.66815786063671 4.92474197404413
6.68863179907203 5.88121601357117
6.70910573750734 7.11765461795707
6.72957967594266 8.13145362053517
6.75005361437798 10.2299046879721
6.77052755281329 12.784101570268
6.79100149124861 15.6443046840893
6.81147542968392 19.5266598627696
6.83194936811924 23.909031689642
6.85242330655456 25.7119930813733
6.87289724498987 25.4199190379635
6.89337118342519 20.2528616427458
6.9138451218605 14.3853000623871
6.93431906029582 9.7638488802205
6.95479299873114 6.91585184624612
6.97526693716645 5.23584021046395
6.99574087560177 4.02850147287398
7.01621481403708 3.6063356334762
7.0366887524724 3.24278019227063
7.05716269090772 2.95476223259059
7.07763662934303 3.03915675443608
7.09811056777835 2.46341167447377
7.11858450621367 2.52700615937032
7.13905844464898 2.28592979245908
7.1595323830843 2.0591929904067
7.18000632151961 2.00564991987985
7.20048025995493 1.86488391421187
7.22095419839025 1.69939497340276
7.24142813682556 1.89720393078584
7.26190207526088 1.74607120302779
7.28237601369619 1.56761137346194
7.30284995213151 1.58708485875496
7.32332389056683 1.6430333255735
7.34379782900214 1.80186302391758
7.36427176743746 1.71331353712053
7.38474570587277 1.67425986518234
7.40521964430809 1.64433742476969
7.42569358274341 1.8709420492159
7.44616752117872 2.17178207185431
7.46664145961404 1.90232624268492
7.48711539804935 1.94929331170773
7.50758933648467 2.12648536225607
7.52806327491999 1.78025656099661
7.5485372133553 1.61633607459602
7.56901115179062 1.51753640305429
7.58948509022594 1.21432629637143
7.60995902866125 1.44238283788076
7.63043296709657 1.24988311091563
7.65090690553188 1.18891044880937
7.6713808439672 1.34410026822864
7.69185478240252 1.15425465250677
7.71232872083783 1.07640485164377
7.73280265927315 1.08060294897297
7.75327659770846 1.0744010278277
7.77375053614378 0.927590754874636
7.7942244745791 1.2274117134471
7.81469841301441 0.999905570211763
7.83517235144973 1.13309315850196
7.85564628988504 1.16213072831769
7.87612022832036 1.31488286299228
7.89659416675568 1.20463081252574
7.91706810519099 1.27929124358474
7.93754204362631 1.49849957283593
7.95801598206162 1.48855788361265
7.97848992049694 1.69738284258158
7.99896385893226 1.6718494497427
8.01943779736757 1.83122853842935
8.03991173580289 2.05312427530821
8.06038567423821 2.2958699937126
8.08085961267352 2.07378861030918
8.10133355110884 2.45589054176464
8.12180748954415 2.45910287141229
8.14228142797947 2.32821726591881
8.16275536641479 2.31844205861752
8.1832293048501 2.25269391617511
8.20370324328542 2.07888950525822
8.22417718172073 1.99624757586687
8.24465112015605 1.73784104466772
8.26512505859137 1.6291907449941
8.28559899702668 1.48149459351268
8.306072935462 1.35074217355679
8.32654687389731 1.4075064017931
8.34702081233263 1.14918311155494
8.36749475076795 1.27108480284232
8.38796868920326 0.98024272565523
8.40844262763858 1.055302713327
8.42891656607389 0.936368932524312
8.44939050450921 1.00364971658048
8.46986444294453 1.09308256549552
8.49033838137984 0.955969562602762
8.51081231981516 1.02460237456887
8.53128625825047 1.10497058472717
8.55176019668579 1.10202210974434
8.57223413512111 1.17591319962038
8.59270807355642 1.21857093768861
8.61318201199174 1.26515157394904
8.63365595042706 1.59169677506834
8.65412988886237 1.63310237437984
8.67460382729769 2.11462878855021
8.695077765733 2.18601560091277
8.71555170416832 2.31991906146754
8.73602564260364 2.6296204202145
8.75649958103895 2.66199467715366
8.77697351947427 2.94959391561835
8.79744745790958 2.69814730227525
8.8179213963449 2.50400900379101
8.83839533478022 2.49348110349897
8.85886927321553 2.65614693473246
8.87934321165085 2.40216274749148
8.89981715008616 2.64038270844271
8.92029108852148 2.65726515091946
8.9407650269568 2.96713299158842
8.96123896539211 3.19368414711624
8.98171290382743 3.53743945083626
9.00218684226274 3.75490931941515
9.02266078069806 4.32786458618623
9.04313471913338 4.96203441781618
9.06360865756869 5.17434589763833
9.08408259600401 6.08068444231935
9.10455653443933 6.71230005185923
9.12503047287464 7.20460939292465
9.14550441130996 8.23469579884893
9.16597834974527 8.94058010296541
9.18645228818059 9.03971022194076
9.20692622661591 9.25864865577497
9.22740016505122 9.21067665446805
9.24787410348654 8.26949213468665
9.26834804192185 7.8921263464308
9.28882198035717 6.98873553970047
9.30929591879249 5.77155929782902
9.3297698572278 5.24059762081642
9.35024379566312 4.53387134199603
9.37071773409843 3.8336721280345
9.39119167253375 3.52541664559851
9.41166561096907 3.20806322802138
9.43213954940438 3.08213270863645
9.4526134878397 2.74528133744372
9.47308742627501 2.42667578110986
9.49356136471033 2.55470145630152
9.51403530314565 2.59029586301873
9.53450924158096 2.58684441792812
9.55498318001628 2.59512837102972
9.5754571184516 2.63988730565686
9.59593105688691 2.99716288847619
9.61640499532223 3.14612178615438
9.63687893375754 3.58936816535811
9.65735287219286 4.08992285942071
9.67782681062818 4.50976503500884
9.69830074906349 5.3528009421225
9.71877468749881 5.84949933076169
9.73924862593412 6.02850603425975
9.75972256436944 6.84685230261668
9.78019650280476 7.16391313583247
9.80067044124007 7.21145936724046
9.82114437967539 6.91266808017398
9.8416183181107 6.75191427463304
9.86209225654602 5.84117711728429
9.88256619498134 4.95519619146108
9.90304013341665 4.2267839971634
9.92351407185197 3.47104470105792
9.94398801028728 3.17625955314463
9.9644619487226 2.69789730342355
9.98493588715792 2.21955170189467
10.0054098255932 1.89226441522465
10.0258837640285 1.71343127674683
10.0463577024639 1.42263561979455
10.0668316408992 1.30633577770113
10.0873055793345 1.00255258379991
10.1077795177698 0.864150621424221
10.1282534562051 0.760921557240733
10.1487273946404 0.82828205791611
10.1692013330758 0.510242540117021
10.1896752715111 0.476073837176796
10.2101492099464 0.376817615762105
10.2306231483817 0.426015542539612
10.251097086817 0.244761367509319
10.2715710252523 0.26013842400456
10.2920449636877 0.120584212025332
10.312518902123 0.231046648238303
10.3329928405583 -0.0347763506898588
10.3534667789936 0.0340527152408434
10.3739407174289 0.0638359293637469
10.3944146558642 0.193896208345515
10.4148885942996 -0.0197768644805172
10.4353625327349 0.138962544218983
10.4558364711702 0.0490206844440153
10.4763104096055 0.0320121395279145
10.4967843480408 0.0566869094706792
10.5172582864761 0.176430410938977
10.5377322249115 -0.115267772733859
10.5582061633468 -0.0423659748811644
10.5786801017821 -0.0684058621696031
10.5991540402174 -0.0536491552123741
10.6196279786527 0.00539503327038648
10.640101917088 -0.0475232967213191
10.6605758555233 0.0480125214791745
10.6810497939587 -0.0673725121281334
10.701523732394 -0.0681575642099084
10.7219976708293 -0.0537245472007042
10.7424716092646 -0.1213061319993
10.7629455476999 0.14576434806097
10.7834194861352 0.10035147631344
10.8038934245706 -0.0505134972418912
10.8243673630059 0.138481927394976
10.8448413014412 0.151712750224044
10.8653152398765 0.202720637911977
10.8857891783118 0.271974340458776
10.9062631167471 0.423275941197773
10.9267370551825 0.585010856795637
10.9472109936178 0.5514499205857
10.9676849320531 0.636395215901297
10.9881588704884 0.546877992742425
11.0086328089237 0.375346167775753
11.029106747359 0.38351849100128
11.0495806857944 0.256290795752339
11.0700546242297 0.234548498695599
11.090528562665 -0.0150417335022768
11.1110025011003 0.154655515825381
11.1314764395356 0.0899944133452371
11.1519503779709 0.0670166257239599
11.1724243164063 0.132597152961548
11.1928982548416 0.105746411724668
11.2133721932769 0.176568568679988
11.2338461317122 0.236990707160841
11.2543200701475 0.28440866050056
11.2747940085828 0.197728678699145
11.2952679470181 0.452211178423262
11.3157418854535 0.402022826339579
11.3362158238888 0.428674039114761
11.3566897623241 0.472268983415476
11.3771637007594 0.567963909241724
11.3976376391947 0.54648798326017
11.41811157763 0.581018288804149
11.4385855160654 0.523117325873661
11.4590594545007 0.568097594468706
11.479533392936 0.602677844589283
11.5000073313713 0.629462242902059
11.5204812698066 0.639336206073702
11.5409552082419 0.629695567437544
11.5614291466773 0.59533199366025
11.5819030851126 0.75759965140849
11.6023770235479 0.891238124015596
11.6228509619832 0.728018244814902
11.6433249004185 0.852575430473073
11.6637988388538 0.997982597656776
11.6842727772892 1.20590641303268
11.7047467157245 1.25889895993411
11.7252206541598 1.26242898836108
11.7456945925951 1.35061108164692
11.7661685310304 1.56511190645828
11.7866424694657 1.30827521279518
11.807116407901 1.44728850065761
11.8275903463364 1.17486010337891
11.8480642847717 1.09255252095908
11.868538223207 1.04932408673144
11.8890121616423 0.832935217362666
11.9094861000776 0.718125496186095
11.9299600385129 0.519999089868389
11.9504339769483 0.691680998409548
11.9709079153836 0.566504555142907
11.9913818538189 0.468688510068465
12.0118557922542 0.445107863186223
12.0323297306895 0.451491781162846
12.0528036691248 0.409715263998336
12.0732776075602 0.443476228359358
12.0937515459955 0.400430924245912
12.1142254844308 0.435527268324666
12.1346994228661 0.346942343928953
12.1551733613014 0.470613651058771
12.1756472997367 0.448468273047456
12.1961212381721 0.51618329322834
12.2165951766074 0.378185794934757
12.2370691150427 0.534475778166706
12.257543053478 0.494167826257522
12.2780169919133 0.555439022540536
12.2984909303486 0.66360186701575
12.318964868784 0.581677193016496
12.3394388072193 0.684665000542775
12.3599127456546 0.835846539594586
12.3803866840899 0.655013476838597
12.4008606225252 0.920811645608139
12.4213345609605 1.10459521256988
12.4418084993958 0.92381209439049
12.4622824378312 1.04643104106996
12.4827563762665 1.32922288594164
12.5032303147018 1.40630221233884
12.5237042531371 1.57975235359492
12.5441781915724 1.66207330970985
12.5646521300077 1.59727549735032
12.5851260684431 1.93744224984966
12.6056000068784 2.18517773387453
12.6260739453137 2.18553403275827
12.646547883749 2.1195007298342
12.6670218221843 2.24879657510233
12.6874957606196 2.20623406856267
12.707969699055 2.16238612688186
12.7284436374903 2.21490900005993
12.7489175759256 1.89635477143019
12.7693915143609 1.94630677432599
12.7898654527962 1.66684834208065
12.8103393912315 1.58141697469418
12.8308133296669 1.44261683883324
12.8512872681022 1.4014896011645
12.8717612065375 0.950222761687959
12.8922351449728 1.01720173707028
12.9127090834081 1.03081194397814
12.9331830218434 0.8295950490782
12.9536569602787 0.800269802370456
12.9741308987141 0.812627870521578
12.9946048371494 0.627085920198232
13.0150787755847 0.826977284733753
13.03555271402 0.887562380794807
13.0560266524553 0.965091208381392
13.0765005908906 1.17414710082684
13.096974529326 1.04207380813116
13.1174484677613 1.25246508029434
13.1379224061966 1.39386258398306
13.1583963446319 1.54308923586398
13.1788702830672 1.61811378593709
13.1993442215025 1.64107165086907
13.2198181599379 1.63800449732659
13.2402920983732 1.5997977419763
13.2607660368085 1.33634721815154
13.2812399752438 1.37109042585232
13.3017139136791 1.03345444841196
13.3221878521144 0.935418452497139
13.3426617905498 0.711097021441181
13.3631357289851 0.553198488577423
13.3836096674204 0.49167077057253
13.4040836058557 0.41974303409317
13.424557544291 0.425956945806008
13.4450314827263 0.471250005711047
13.4655054211617 0.45666388047495
13.485979359597 0.399125653431054
13.5064532980323 0.449676991246023
13.5269272364676 0.501547060586525
13.5474011749029 0.343798361452559
13.5678751133382 0.566274643844127
13.5883490517735 0.295277991094559
13.6088229902089 0.292527153203858
13.6292969286442 0.0254700468386897
13.6497708670795 0.146450421999054
13.6702448055148 0.0825516120182836
13.6907187439501 0.10721111689638
13.7111926823854 0.0290226866333412
13.7316666208208 0.0589238212291687
13.7521405592561 0.0823311873505284
13.7726144976914 0.0758072849974218
13.7930884361267 0.123987530836513
13.813562374562 -0.0283364084655284
13.8340363129973 -0.0048624495753713
13.8545102514327 -0.0699135091596812
13.874984189868 -0.00253841099348673
13.8954581283033 0.0114679186982407
13.9159320667386 0.0723658965821667
13.9364060051739 0.0304159393249597
13.9568799436092 -0.00891320307338273
13.9773538820446 0.167920136053808
13.9978278204799 0.191124290039865
14.0183017589152 0.136220092218121
14.0387756973505 0.165967959255243
14.0592496357858 0.118909557817897
14.0797235742211 0.267180304572752
14.1001975126565 0.272238532853137
14.1206714510918 0.36976132599239
14.1411453895271 0.429540350657174
14.1616193279624 0.507565190180825
14.1820932663977 0.491856677896676
14.202567204833 0.577727313804724
14.2230411432683 0.627156264571639
14.2435150817037 0.629726863530754
14.263989020139 0.435699527348734
14.2844629585743 0.489084672692247
14.3049368970096 0.545090632894626
14.3254108354449 0.417519491289204
14.3458847738802 0.394131664542649
14.3663587123156 0.366854235988291
14.3868326507509 0.274489288959467
14.4073065891862 0.317557656789508
14.4277805276215 0.226528089478416
14.4482544660568 0.336036003692856
14.4687284044921 0.230716816099496
14.4892023429275 0.289476776698335
14.5096762813628 0.181586718822706
14.5301502197981 0.0906403924726087
14.5506241582334 0.243200297648046
14.5710980966687 0.191349767682348
14.591572035104 0.0926408859088497
14.6120459735394 0.0629590689942177
14.6325199119747 -0.00967484972821575
14.65299385041 0.0479162130748838
14.6734677888453 0.0925030907368485
14.6939417272806 0.133200366591014
14.7144156657159 0.0658413739707102
14.7348896041512 -0.0666051371240601
14.7553635425866 0.113464999973369
14.7758374810219 0.104749701929664
14.7963114194572 0.0778218854114909
14.8167853578925 0.190233633752185
14.8372592963278 0.111255780285077
14.8577332347631 0.159898741676835
14.8782071731985 0.412985434594126
14.8986811116338 0.423901275703616
14.9191550500691 0.484312931671973
14.9396289885044 0.536928735832529
14.9601029269397 0.589561188185283
14.980576865375 0.83491862206357
15.0010508038104 1.05294895413406
15.0215247422457 1.27360010106341
15.041998680681 1.36405956285163
15.0624726191163 1.35948358949871
15.0829465575516 1.319768014338
15.1034204959869 1.16157950403615
15.1238944344223 1.09064722525983
15.1443683728576 1.32702326134237
15.1648423112929 1.10638469561712
15.1853162497282 0.944356528084068
15.2057901881635 0.810990842076547
15.2262641265988 0.810454304261226
15.2467380650342 0.975298997971436
15.2672120034695 0.799014506540513
15.2876859419048 0.889673746635123
15.3081598803401 0.851443384921931
15.3286338187754 0.593177588067606
15.3491077572107 0.802376356072146
15.369581695646 0.848831355602219
15.3900556340814 1.00728216999116
15.4105295725167 0.850645465905629
15.431003510952 1.1159004100123
15.4514774493873 1.10252616897784
15.4719513878226 1.26364774280224
15.4924253262579 1.41046304815217
15.5128992646933 1.24088875169431
15.5333732031286 1.24320610342864
15.5538471415639 1.28720677002184
15.5743210799992 1.03825533480724
15.5947950184345 1.22551846445151
15.6152689568698 1.24743365895464
15.6357428953052 0.998532168316633
15.6562168337405 1.0139702425375
15.6766907721758 1.13228954828389
15.6971647106111 1.05010466888915
15.7176386490464 0.952311437686611
15.7381125874817 0.970420271342938
15.7585865259171 0.929952003191464
15.7790604643524 0.931167049898855
15.7995344027877 1.05739874479844
15.820008341223 0.981824171223568
15.8404822796583 0.914078745840891
15.8609562180936 0.841141635317078
15.8814301565289 0.726554506318799
15.9019040949643 0.729171525512719
15.9223780333996 0.684930192898838
15.9428519718349 0.565184675143824
15.9633259102702 0.553528722247675
15.9837998487055 0.488504000877059
16.0042737871408 0.400058427698642
16.0247477255762 0.463973252712424
16.0452216640115 0.414623475918406
16.0656956024468 0.414769513983253
16.0861695408821 0.507380116906966
16.1066434793174 0.687246951356212
16.1271174177527 0.557234600664324
16.1475913561881 0.483228481497969
16.1680652946234 0.700905677190479
16.1885392330587 0.697245354408522
16.209013171494 0.769122513152097
16.2294871099293 0.975130903421205
16.2499610483646 0.802249691882512
16.2704349868 0.78563512853602
16.2909089252353 0.594558046715058
16.3113828636706 0.613133029752964
16.3318568021059 0.441620494316401
16.3523307405412 0.456322523738705
16.3728046789765 0.264009951353207
16.3932786174119 0.326922360493243
16.4137525558472 0.107299334492144
16.4342264942825 0.131182540016578
16.4547004327178 0.126436560399877
16.4751743711531 0.221967645642044
16.4956483095884 0.0466820457430748
16.5161222480237 -0.0556702392970267
16.5365961864591 -0.030401709478264
16.5570701248944 -0.0598040314673014
16.5775440633297 -0.0996063719308067
16.598018001765 0.0591004702783864
16.6184919402003 -0.011342705986888
16.6389658786356 0.0510432659400371
16.659439817071 0.0939146360591607
16.6799137555063 0.169354737703817
16.7003876939416 0.101582320874006
16.7208616323769 0.262993218903061
16.7413355708122 0.326764515124315
16.7618095092475 0.308521209537768
16.7822834476829 0.464773718810088
16.8027573861182 0.494740792941273
16.8232313245535 0.630193265264658
16.8437052629888 0.720089469113575
16.8641792014241 0.755314821154691
16.8846531398594 0.679879738054673
16.9051270782948 0.721648803146855
16.9256010167301 0.631924099764569
16.9460749551654 0.539611877907816
16.9665488936007 0.442107970909928
16.987022832036 0.46962071210424
17.0074967704713 0.437254268157418
17.0279707089067 0.304644055736128
17.048444647342 0.324394241507038
17.0689185857773 0.335046492136814
17.0893925242126 0.119152890958788
17.1098664626479 0.172807187972962
17.1303404010832 0.200436466512668
17.1508143395185 0.117405309911241
17.1712882779539 0.152880384835346
17.1917622163892 0.167538774618317
17.2122361548245 0.212161729260154
17.2327100932598 0.286749248760856
17.2531840316951 0.202499249787092
17.2736579701304 0.222432565672193
17.2941319085658 0.246288779749494
17.3146058470011 0.408182475352327
17.3350797854364 0.481551152480693
17.3555537238717 0.462488561134591
17.376027662307 0.481203034647355
17.3965016007423 0.611913323018985
17.4169755391777 0.577275676249482
17.437449477613 0.519217177672177
17.4579234160483 0.713779493953739
17.4783973544836 0.482577208427498
17.4988712929189 0.511808237760125
17.5193452313542 0.64652466528495
17.5398191697896 0.608080657668642
17.5602931082249 0.636059548244532
17.5807670466602 0.485669670345957
17.6012409850955 0.589202690639578
17.6217149235308 0.5833773591254
17.6421888619661 0.621839509136754
17.6626628004014 0.640787057340309
17.6831367388368 0.700115837069395
17.7036106772721 0.79461751499068
17.7240846157074 0.830542091104165
17.7445585541427 0.969347898743183
17.765032492578 1.02353493790773
17.7855064310133 1.25612404193115
17.8059803694487 1.43404229414676
17.826454307884 1.50130011122124
17.8469282463193 1.71180374315459
17.8674021847546 1.68925110661347
17.8878761231899 1.73051720159788
17.9083500616252 1.95148744477449
17.9288240000606 1.8052868361433
17.9492979384959 1.94295704237098
17.9697718769312 1.92178973012419
17.9902458153665 1.8967328160696
18.0107197538018 1.82351546687387
18.0311936922371 1.77114809920368
18.0516676306725 1.55994321305902
18.0721415691078 1.48807789177322
18.0926155075431 1.40190630201296
18.1130894459784 1.3470013604449
18.1335633844137 1.43404015040237
18.154037322849 1.37786642188537
18.1745112612844 1.35946975822724
18.1949851997197 1.46088140942797
18.215459138155 1.48288262548757
18.2359330765903 1.52964007307271
18.2564070150256 1.6063620855167
18.2768809534609 1.46304866281957
18.2973548918962 1.51246022164797
18.3178288303316 1.38610717866856
18.3383027687669 1.58659370054802
18.3587767072022 1.52016978728635
18.3792506456375 1.38475210555021
18.3997245840728 1.27409065533961
18.4201985225081 1.1712583533212
18.4406724609435 1.12964061616166
18.4611463993788 0.912258277194315
18.4816203378141 0.825100919752505
18.5020942762494 0.835616460502894
18.5225682146847 0.873492399445483
18.54304215312 0.635343319913604
18.5635160915554 0.761794221907258
18.5839900299907 0.694251355426445
18.604463968426 0.54469388713783
18.6249379068613 0.574840567041415
18.6454118452966 0.581566395137199
18.6658857837319 0.400808871425183
18.6863597221673 0.415380495905366
18.7068336606026 0.474239601911081
18.7273075990379 0.48754243944233
18.7477815374732 0.586799425165776
18.7682554759085 0.545448059081422
18.7887294143438 0.379113341189268
18.8092033527792 0.646389021489313
18.8296772912145 0.507431349981557
18.8501512296498 0.462240326666
18.8706251680851 0.652743034875976
18.8910991065204 0.733887391278151
18.9115730449557 0.630152562539192
18.932046983391 0.698309381992433
18.9525209218264 0.683149516304539
18.9729948602617 0.750037548808845
18.993468798697 0.87944222950535
19.0139427371323 0.807040641727387
19.0344166755676 1.04455153547496
19.0548906140029 0.94744366074806
19.0753645524383 1.14071701754669
19.0958384908736 1.15952785587086
19.1163124293089 1.3450220090539
19.1367863677442 1.39511614376246
19.1572603061795 1.62361234332989
19.1777342446148 1.69196894108952
19.1982081830502 1.83195677037469
19.2186821214855 1.79878416451872
19.2391560599208 1.82031570685495
19.2596299983561 2.17649931405004
19.2801039367914 2.14988706943734
19.3005778752267 1.8719893896835
19.3210518136621 1.70348335812186
19.3415257520974 1.73160855808575
19.3619996905327 1.87303165624184
19.382473628968 1.50275265259013
19.4029475674033 1.39160488046395
19.4234215058386 1.34167167319664
19.4438954442739 1.19409886412153
19.4643693827093 0.960605203238618
19.4848433211446 0.922440690547904
19.5053172595799 0.92726157604939
19.5257911980152 0.701630359743076
19.5462651364505 0.754661624962294
19.5667390748858 0.667084538373711
19.5872130133212 0.625097016643994
19.6076869517565 0.600053226439809
19.6281608901918 0.543776084427824
19.6486348286271 0.454963507274705
19.6691087670624 0.484657161647118
19.6895827054977 0.317752880878397
19.7100566439331 0.493313164968542
19.7305305823684 0.554306763917553
19.7510045208037 0.354900344392097
19.771478459239 0.297437656392173
19.7919523976743 0.358481199917782
19.8124263361096 0.337510141635589
19.832900274545 0.440253648212263
19.8533742129803 0.381555469647803
19.8738481514156 0.292926022608876
19.8943220898509 0.222542390428814
19.9147960282862 0.314935823107618
19.9352699667215 0.269325070645289
19.9557439051569 0.281022633041825
19.9762178435922 0.243257676963893
19.9966917820275 0.348738535744828
20.0171657204628 0.225069376051294
20.0376396588981 0.299333531216627
20.0581135973334 0.249916417907494
20.0785875357687 0.210932619457225
20.0990614742041 0.0638925525324892
20.1195354126394 0.388223300466619
20.1400093510747 0.165695696592949
20.16048328951 0.181465990911477
20.1809572279453 0.210273766755539
20.2014311663806 0.293785690791798
20.221905104816 0.0960642630202582
20.2423790432513 0.18091156677425
20.2628529816866 0.170723435387108
20.2833269201219 0.183989452192166
20.3038008585572 0.106126283856089
20.3242747969925 0.0673422637122121
20.3447487354279 0.0624290584271998
20.3652226738632 0.0380012513343875
20.3856966122985 0.0617671757671077
20.4061705507338 0.0425809983920278
20.4266444891691 0.0950260525424795
20.4471184276044 -0.0920955784482023
20.4675923660398 -0.023992227913352
20.4880663044751 -0.0105597291863027
20.5085402429104 -0.0452876656003864
20.5290141813457 0.0749489628443953
20.549488119781 0.00900432281470964
20.5699620582163 0.0172950809772234
20.5904359966516 0.0034670706652693
20.610909935087 -0.0702401247878188
20.6313838735223 -0.0745520795539103
20.6518578119576 0.159433863872198
20.6723317503929 -0.0596885445094943
20.6928056888282 -0.0457213880323213
20.7132796272635 0.112793666637051
20.7337535656989 0.0708045361652894
20.7542275041342 0.00148830388572652
20.7747014425695 -0.013123780201636
20.7951753810048 0.0412912005698671
20.8156493194401 -0.139954253799764
20.8361232578754 -0.0204018099771961
20.8565971963108 0.0509901987042376
20.8770711347461 -0.173174061088796
20.8975450731814 -0.0502472843487993
20.9180190116167 0.0362378072500631
20.938492950052 0.015968713707792
20.9589668884873 0.0595183516910529
20.9794408269227 0.112199221199846
20.999914765358 -0.000467844432494147
21.0203887037933 0.119954654794031
21.0408626422286 0.0737271355460898
21.0613365806639 0.0574641811570138
21.0818105190992 0.22611370829347
21.1022844575346 0.161706966955459
21.1227583959699 0.0986189571429805
21.1432323344052 0.289453845522702
21.1637062728405 0.244628298761289
21.1841802112758 0.255808983525408
21.2046541497111 0.296954233148393
21.2251280881464 0.218324464296912
21.2456020265818 0.371482176970962
21.2660759650171 0.428302371170545
21.2865499034524 0.393993380228994
21.3070238418877 0.495117704146309
21.327497780323 0.32933159292249
21.3479717187583 0.353666296557536
21.3684456571937 0.319423898384782
21.388919595629 0.287802315070894
21.4093935340643 0.385103629949205
21.4298674724996 0.409504926353049
21.4503414109349 0.600589537615759
21.4708153493702 0.532576213737334
21.4912892878056 0.611714954717776
21.5117632262409 0.59060992722375
21.5322371646762 0.52134446458859
21.5527111031115 0.578397733478962
21.5731850415468 0.619842650561533
21.5936589799821 0.661304215836306
21.6141329184175 0.890282429303275
21.6346068568528 0.884902290962445
21.6550807952881 0.985007550813814
21.6755547337234 1.01872320885738
21.6960286721587 0.919643015093149
21.716502610594 0.928652386187781
21.7369765490294 0.886897155474614
21.7574504874647 1.00922107295365
21.7779244259 1.01697830529154
21.7983983643353 1.08204385248831
21.8188723027706 0.997386464543937
21.8393462412059 1.13149572479176
21.8598201796412 1.10286121656513
21.8802941180766 1.08466002319736
21.9007680565119 1.17194422802178
21.9212419949472 1.34908883103841
21.9417159333825 1.3608854989139
21.9621898718178 1.20863631498159
21.9826638102531 1.26864336257481
22.0031377486885 1.30522955836023
22.0236116871238 1.39782198567119
22.0440856255591 1.48652481117435
22.0645595639944 1.42550470153637
22.0850335024297 1.73168874009059
22.105507440865 1.73189984350367
22.1259813793004 1.89879426177562
22.1464553177357 2.19330949490644
22.166929256171 2.06987262622946
22.1874031946063 2.33968157241134
22.2078771330416 2.34909050011875
22.2283510714769 2.5668494093517
22.2488250099123 2.68436455011018
22.2692989483476 2.72637550572753
22.2897728867829 2.42074685953707
22.3102468252182 2.35081194487215
22.3307207636535 2.37985201173276
22.3511947020888 2.15239831011891
22.3716686405241 2.18798209003058
22.3921425789595 2.05561376813446
22.4126165173948 1.67456417776386
22.4330904558301 1.90160415225214
22.4535643942654 1.84090035826594
22.4740383327007 1.69297362913861
22.494512271136 1.70782396487015
22.5149862095714 1.89586803212722
22.5354601480067 1.93418916424316
22.555934086442 1.87226652788463
22.5764080248773 1.89890220638496
22.5968819633126 1.96331494974416
22.6173559017479 2.08243184129556
22.6378298401833 2.0505237143725
22.6583037786186 2.0798301523083
22.6787777170539 2.28753865510296
22.6992516554892 2.56818047275649
22.7197255939245 2.46732852193555
22.7401995323598 2.75451405264015
22.7606734707952 2.86463289820361
22.7811474092305 3.07893505862594
22.8016213476658 3.10184761724046
22.8220952861011 3.34092265738052
22.8425692245364 3.46282684571278
22.8630431629717 3.62250809890391
22.8835171014071 3.87595600028723
22.9039910398424 4.02264971652942
22.9244649782777 4.06128716429714
22.944938916713 4.11426417692373
22.9654128551483 4.02923700440918
22.9858867935836 4.0093306467535
23.0063607320189 4.08188885395669
23.0268346704543 3.71826579268541
23.0473086088896 3.41455521293966
23.0677825473249 3.39080919805278
23.0882564857602 3.32150691469143
23.1087304241955 2.85248169618894
23.1292043626308 2.67253562587866
23.1496783010662 2.3845332870939
23.1701522395015 2.30227676316802
23.1906261779368 1.960922304101
23.2111001163721 1.91906365989284
23.2315740548074 1.67539874721022
23.2520479932427 1.83018798271979
23.2725219316781 1.51884803308824
23.2929958701134 1.42367056498221
23.3134698085487 1.41184307840172
23.333943746984 1.32971974001343
23.3544176854193 1.45464429981733
23.3748916238546 1.34000217448011
23.39536556229 1.31912669733508
23.4158395007253 1.08602828504891
23.4363134391606 1.08732152095495
23.4567873775959 1.13290223838652
23.4772613160312 1.23579127067696
23.4977352544665 1.30354070115959
23.5182091929019 1.32312969650109
23.5386831313372 1.27502700670146
23.5591570697725 1.40662846509402
23.5796310082078 1.44970490501212
23.6001049466431 1.46936049312242
23.6205788850784 1.49814731275825
23.6410528235137 1.49439869725294
23.6615267619491 1.57400006327317
23.6820007003844 1.44137849415227
23.7024746388197 1.40122148989023
23.722948577255 1.17618530048705
23.7434225156903 1.07876992594274
23.7638964541256 0.957933699590636
23.784370392561 0.913937038097393
23.8048443309963 0.821779941463016
23.8253182694316 0.802556159687505
23.8457922078669 0.800276109437527
23.8662661463022 0.709471040713081
23.8867400847375 0.634307620180834
23.9072140231729 0.556556681174121
23.9276879616082 0.504864057026273
23.9481619000435 0.509177664403957
23.9686358384788 0.539549586640508
23.9891097769141 0.374625657069257
24.0095837153494 0.397218375690206
24.0300576537848 0.345608992503355
24.0505315922201 0.403391257508702
24.0710055306554 0.238533920706248
24.0914794690907 0.278120315429328
24.111953407526 0.484390025011272
24.1324273459613 0.27400971611875
24.1529012843966 0.325364805418427
24.173375222832 0.314236542910304
24.1938491612673 0.369531178594379
24.2143230997026 0.452186212470654
24.2347970381379 0.374701644539129
24.2552709765732 0.463900391466468
24.2757449150085 0.477594953252674
24.2962188534439 0.532972829897745
24.3166927918792 0.537586104735017
24.3371667303145 0.45758061109782
24.3576406687498 0.463529265652822
24.3781146071851 0.451265401733358
24.3985885456204 0.608289019339426
24.4190624840558 0.640329285137694
24.4395364224911 0.486188282461494
24.4600103609264 0.563834761310825
24.4804842993617 0.572487471685691
24.500958237797 0.594177663586087
24.5214321762323 0.511717837012017
24.5419061146677 0.611566325296815
24.562380053103 0.435389795107143
24.5828539915383 0.414177829776337
24.6033279299736 0.484128345971064
24.6238018684089 0.377012177024658
24.6442758068442 0.448298072937116
24.6647497452796 0.436267283708441
24.6852236837149 0.473732309338632
24.7056976221502 0.366682733161022
24.7261715605855 0.382045638508945
24.7466454990208 0.307581442049067
24.7671194374561 0.256571393781388
24.7875933758914 0.482921743705908
24.8080673143268 0.471007491822628
24.8285412527621 0.318484888131546
24.8490151911974 0.311812265965997
24.8694891296327 0.357239625325982
24.889963068068 0.345391966211499
24.9104370065033 0.30100887195588
24.9309109449387 0.459767425892463
24.951384883374 0.227917628021244
24.9718588218093 0.296865728342223
24.9923327602446 0.34890339352207
25.0128066986799 0.251218123560782
25.0332806371152 0.274643251791693
25.0537545755506 0.256418361548138
25.0742285139859 0.243418452830114
25.0947024524212 0.244758108970956
25.1151763908565 0.0859581633039976
25.1356503292918 0.307383199162572
25.1561242677271 0.0743977998800114
25.1765982061625 0.168251965456318
25.1970721445978 0.113685279224824
25.2175460830331 -0.000760592147805106
25.2380200214684 0.103560184671765
25.2584939599037 0.0620642763502017
25.278967898339 0.133866266220837
25.2994418367743 0.0911015709503382
25.3199157752097 -0.132636059461294
25.340389713645 0.0251533749859392
25.3608636520803 0.0280115409587056
25.3813375905156 -0.0472386448763289
25.4018115289509 0.0168507341475017
25.4222854673862 -0.0258140719698012
25.4427594058216 0.00836068677176138
25.4632333442569 0.0933333437055239
25.4837072826922 0.0155622321648186
25.5041812211275 0.0276515188163131
25.5246551595628 -0.0240446296733272
25.5451290979981 -0.0405678799707681
25.5656030364335 0.00933176792398971
25.5860769748688 -0.117835269322386
25.6065509133041 -0.0104756076313031
25.6270248517394 0.108619452251979
25.6474987901747 0.0636686603274597
25.66797272861 0.0786303499284733
25.6884466670454 -0.0418079789449806
25.7089206054807 0.0916765903737646
25.729394543916 0.00121947455137539
25.7498684823513 0.0995810902545196
25.7703424207866 0.0898864374831962
25.7908163592219 0.0190105162374059
25.8112902976573 0.164297076517147
25.8317642360926 0.179391951655755
25.8522381745279 0.225753474986561
25.8727121129632 0.0403608131762345
25.8931860513985 0.0737347995581064
25.9136599898338 0.32717751746551
25.9341339282691 0.170480633565114
25.9546078667045 0.324998314523584
25.9750818051398 0.276407643674253
25.9955557435751 0.312469037683788
26.0160296820104 0.379797079885522
26.0365036204457 0.275266770279455
26.056977558881 0.432471858865587
26.0774514973164 0.294120678977253
26.0979254357517 0.503442397281117
26.118399374187 0.337780763777181
26.1388733126223 0.565364945132111
26.1593472510576 0.446611608012573
26.1798211894929 0.350010335751902
26.2002951279283 0.347175711683428
26.2207690663636 0.330034819140488
26.2412430047989 0.280358491456414
26.2617169432342 0.164292561964539
26.2821908816695 0.225326613998197
26.3026648201048 0.216064814224053
26.3231387585402 0.103955079308776
26.3436126969755 0.198893242585699
26.3640866354108 0.12978555405482
26.3845605738461 0.193507013716141
26.4050345122814 0.26896387156966
26.4255084507167 0.236364460948713
26.4459823891521 0.120448365186631
26.4664563275874 0.262361417616749
26.4869302660227 0.221999451572398
26.507404204458 0.208997883720248
26.5278781428933 0.344450464060297
26.5483520813286 0.219503025925878
26.5688260197639 0.190926402650325
26.5892999581993 0.125908094233638
26.6097738966346 0.282260600675817
26.6302478350699 0.150869338643528
26.6507217735052 0.141890558136772
26.6711957119405 0.211053425822215
26.6916696503758 0.319295441699858
26.7121435888112 0.1580228557697
26.7326175272465 0.112652334698408
26.7530914656818 0.232663045152648
26.7735654041171 0.277169570465755
26.7940393425524 0.183671910637727
26.8145132809877 0.281597149001898
26.8349872194231 0.214174452224936
26.8554611578584 0.00874757030683915
26.8759350962937 0.165316503247608
26.896409034729 0.140912501047243
26.9168829731643 0.124337647039078
26.9373569115996 0.154654441223111
26.957830850035 0.152435800266011
26.9783047884703 0.0669004741677761
26.9987787269056 0.128517212928408
27.0192526653409 0.154994349881238
27.0397266037762 0.0434673016929348
27.0602005422115 -0.0641368483031695
27.0806744806468 0.0105673165595923
27.1011484190822 0.0891943796145527
27.1216223575175 0.0259110075283795
27.1420962959528 0.138425533634406
27.1625702343881 0.0087692079326307
27.1830441728234 0.0353795304230555
27.2035181112587 -0.0408580822276541
27.2239920496941 -0.00900613001949768
27.2444659881294 -0.0617729462858083
27.2649399265647 -0.0572314476932538
27.285413865 -0.0110066342418333
27.3058878034353 -0.0819526725982129
27.3263617418706 0.0228991872376061
27.346835680306 0.0196947785989585
27.3673096187413 0.0777049348191761
27.3877835571766 -0.0101015941017404
27.4082574956119 -0.0275789748304573
27.4287314340472 -0.0385292907003087
27.4492053724825 -0.0208171250446267
27.4696793109179 0.00732835546992039
27.4901532493532 -0.0178949324899991
27.5106271877885 0.131377594408946
27.5311011262238 0.0345730195000917
27.5515750646591 -0.00101699054989801
27.5720490030944 0.143097147592313
27.5925229415298 0.00597793392672186
27.6129968799651 0.0680941184533306
27.6334708184004 0.0260602845054723
27.6539447568357 0.079095182083146
27.674418695271 0.126938394519686
27.6948926337063 0.0458920051484246
27.7153665721416 0.0677268473026968
27.735840510577 0.114317920982501
27.7563144490123 0.127071476187838
27.7767883874476 0.0591125129187073
27.7972623258829 0.122680614508442
27.8177362643182 0.00136953095704317
27.8382102027535 0.117054262264511
27.8586841411889 0.096036891764177
27.8791580796242 0.067223669456042
27.8996320180595 -0.0396979046598922
27.9201059564948 -0.0658736639169617
27.9405798949301 0.0655193083515018
27.9610538333654 -0.0035919045211692
27.9815277718008 -0.00237396920164024
28.0020017102361 -0.0506185523565796
28.0224756486714 0.0704243460140148
28.0429495871067 0.0352338925768074
28.063423525542 0.0547475873318
28.0838974639773 0.0365175136123241
28.1043714024127 -0.0793521619149513
28.124845340848 0.117294810749971
28.1453192792833 -0.011562401726239
28.1657932177186 -0.0609758826769173
28.1862671561539 -0.00557830264865977
28.2067410945892 0.0342109255717977
28.2272150330245 -0.0210352813488797
28.2476889714599 0.0500372432559759
28.2681629098952 0.0898764160530305
28.2886368483305 0.0086384870422842
28.3091107867658 0.117521372890404
28.3295847252011 0.0324104902640565
28.3500586636364 0.110076672496575
28.3705326020718 0.0276032529212928
28.3910065405071 0.133948564871543
28.4114804789424 0.106195941680659
28.4319544173777 0.0823662166819745
28.452428355813 0.0976156398754893
28.4729022942483 0.102465044594536
28.4933762326837 0.0344144308391159
28.513850171119 0.0770575486092286
28.5343241095543 0.0676339812382065
28.5547980479896 -0.0784916879406157
28.5752719864249 -0.0305902922605723
28.5957459248602 0.0902444182783371
28.6162198632956 0.0118770270094464
28.6366938017309 0.0598283672660869
28.6571677401662 -0.0692869776184057
28.6776416786015 0.0594268256893002
28.6981156170368 0.0384176938558722
28.7185895554721 -0.0672102064520228
28.7390634939075 0.00295979143228164
28.7595374323428 0.00153185417545165
28.7800113707781 0.0248601484441537
28.8004853092134 -0.123669909094944
28.8209592476487 0.0325041815581573
28.841433186084 0.0754136704034569
28.8619071245193 0.0532356407742904
28.8823810629547 -0.0236132406626779
28.90285500139 0.00762744275922067
28.9233289398253 0.106593107706651
28.9438028782606 -0.035309995820386
28.9642768166959 -0.0600089511552233
28.9847507551312 0.018630904457368
29.0052246935666 0.0686415749288254
29.0256986320019 0.0158043102591487
29.0461725704372 -0.0734746395516623
29.0666465088725 0.0286693088297265
29.0871204473078 0.091767405403314
29.1075943857431 -0.0638678498308991
29.1280683241785 -0.0111531235395796
29.1485422626138 0.0559011676106063
29.1690162010491 -0.0306737263803427
29.1894901394844 -0.0338986388457592
29.2099640779197 0.00455976354769039
29.230438016355 -0.0936839358666597
29.2509119547904 0.0372556795778554
29.2713858932257 -0.0687672234520971
29.291859831661 -0.0198255616231835
29.3123337700963 0.0538723317312622
29.3328077085316 0.0481597899445743
29.3532816469669 0.0333493130167524
29.3737555854023 0.060222150947796
29.3942295238376 -0.000127946262294287
29.4147034622729 0.00203860471981487
29.4351774007082 0.03416972056079
29.4556513391435 -0.00790126540603575
29.4761252775788 0.021658980152671
29.4965992160141 -0.0594412094297567
29.5170731544495 -0.0390812492519617
29.5375470928848 -0.0213088075486345
29.5580210313201 0.00559486568022471
29.5784949697554 -0.0495160628987161
29.5989689081907 -0.0212770099521249
29.619442846626 0.0382286911866667
29.6399167850614 0.0365531238509895
29.6603907234967 0.0960921213741792
29.680864661932 0.128304017089568
29.7013386003673 0.0706888109971557
29.7218125388026 0.00918400309694256
29.7422864772379 -0.0288666566110711
29.7627604156733 0.0164326652064481
29.7832343541086 0.0513319685494995
29.8037082925439 -0.00619999658191617
29.8241822309792 0.0313367698121998
29.8446561694145 0.0324318510651826
29.8651301078498 0.0686998305103645
29.8856040462852 -0.085119708518921
29.9060779847205 -0.0370996826893411
29.9265519231558 0.0812494913324389
29.9470258615911 -0.0464784364535826
29.9674998000264 0.0185186172859289
29.9879737384617 0.0470739858843059
30.008447676897 -0.0194060806584506
30.0289216153324 0.0352242509909919
30.0493955537677 -0.022107935834033
30.069869492203 -0.0820276411335255
30.0903434306383 0.0229758427142803
30.1108173690736 0.00429805808761863
30.1312913075089 0.0754806716531569
30.1517652459443 0.111523683410893
30.1722391843796 0.00435417669416349
30.1927131228149 0.087305484836298
30.2131870612502 0.0947526078372998
30.2336609996855 0.189455962363833
30.2541349381208 -0.00749070158410037
30.2746088765562 0.042975115993499
30.2950828149915 -0.021125751570036
30.3155567534268 0.0580191957252949
30.3360306918621 0.0304099578794914
30.3565046302974 0.105681951559221
30.3769785687327 0.110658093431149
30.3974525071681 0.11304671682861
30.4179264456034 0.076389488418271
30.4384003840387 0.044957241533464
30.458874322474 0.0682291428408566
30.4793482609093 0.0511531090071147
30.4998221993446 0.0978958066989053
30.52029613778 0.113405152582895
30.5407700762153 0.0482019799924176
30.5612440146506 0.18223420559414
30.5817179530859 0.140501829388061
30.6021918915212 0.240713184707515
30.6226658299565 0.169066188219167
30.6431397683918 0.165144173256353
30.6636137068272 0.0805096398190708
30.6840876452625 0.141725087907322
30.7045615836978 0.133946767521105
30.7250355221331 0.130091345327087
30.7455094605684 0.180940071325269
30.7659833990037 0.226597112182317
30.7864573374391 0.117322884564897
30.8069312758744 0.0744715551396764
30.8274052143097 0.0225222905733218
30.847879152745 0.156787590865833
30.8683530911803 0.16086120601721
30.8888270296156 0.120680636027453
30.909300968051 0.0453604642298959
30.9297749064863 0.135421523957871
30.9502488449216 0.0627388152113784
30.9707227833569 0.0681977546570853
30.9911967217922 0.151798342294991
31.0116706602275 0.0388009947917634
31.0321445986629 0.0807682121474014
31.0526185370982 0.023793744361905
31.0730924755335 0.0358463414352745
31.0935664139688 0.253644753367511
31.1140403524041 0.108178563491945
31.1345142908394 -0.0125313948580876
31.1549882292748 0.102452378317412
31.1754621677101 0.0794319663517782
31.1959361061454 0.0668448692450103
31.2164100445807 0.0139098369971085
31.236883983016 0.110731036274739
31.2573579214513 0.106006383744568
31.2778318598866 0.0791629627399302
31.298305798322 -0.0179763100725086
31.3187797367573 0.0645885653072527
31.3392536751926 0.092482588879212
31.3597276136279 0.0357578439767048
31.3802015520632 -0.0548044194002699
31.4006754904985 -0.0164437845850456
31.4211494289339 -0.103066501577622
31.4416233673692 0.0264732629553337
31.4620973058045 -0.0809494909861774
31.4825712442398 0.016071486597844
31.5030451826751 0.0831611957073974
31.5235191211104 0.0708404696758174
31.5439930595458 0.0702551418364363
31.5644669979811 0.0241135455225883
31.5849409364164 0.00663443073427228
31.6054148748517 0.0308386308048227
31.625888813287 0.0902157290675722
31.6463627517223 0.00898447552252035
31.6668366901577 0.0345407035030019
31.687310628593 0.0796448296756824
31.7077845670283 0.0635676873738955
31.7282585054636 0.0579238599309742
31.7487324438989 -0.0219220693197473
31.7692063823342 0.0180403162883964
31.7896803207695 0.07755060008874
31.8101542592049 0.0407233654146157
31.8306281976402 0.0364648622660244
31.8511021360755 0.124670923976299
31.8715760745108 0.0279978005454393
31.8920500129461 -0.013971174693221
31.9125239513814 -0.0468089184063492
31.9329978898168 0.0206304027393891
31.9534718282521 -0.0251948779226732
31.9739457666874 0.0253506562741301
31.9944197051227 0.0576836719964655
32.014893643558 0.0418562525776673
32.0353675819933 -0.0885378519822648
32.0558415204287 -0.043795208918056
32.076315458864 0.00747449900501884
32.0967893972993 0.0210004384536262
32.1172633357346 -0.0188423905722339
32.1377372741699 -0.0508560714058941
32.1582112126052 0.0226156459526439
32.1786851510406 -0.121343905163285
32.1991590894759 0.0550256919129857
32.2196330279112 -0.0290047294852114
32.2401069663465 0.0419294139754576
32.2605809047818 0.128505205628326
32.2810548432171 -0.0817773545266069
32.3015287816525 0.0464984001773261
32.3220027200878 0.0706241364067917
32.3424766585231 0.0583081874951232
32.3629505969584 0.100696386775655
32.3834245353937 0.222528317581718
32.403898473829 0.0826581465799809
32.4243724122643 0.0469712904371096
32.4448463506997 0.144113582486438
32.465320289135 0.0706996060612979
32.4857942275703 0.213448111161691
32.5062681660056 0.0944945144542837
32.5267421044409 0.113578399272409
32.5472160428762 0.00637684894939961
32.5676899813116 0.153098196818589
32.5881639197469 0.0550445262133126
32.6086378581822 0.0585700038002344
32.6291117966175 0.0425808795793556
32.6495857350528 0.133379236884009
32.6700596734881 0.0445067423808623
32.6905336119235 0.195234229403248
32.7110075503588 0.0204575312844995
32.7314814887941 0.163405814691284
32.7519554272294 0.203506162956934
32.7724293656647 0.11341482608145
32.7929033041 0.154850554064832
32.8133772425354 0.125990430240412
32.8338511809707 0.190896954608193
32.854325119406 0.163372210501506
32.8747990578413 0.271280781253685
32.8952729962766 0.403945583531396
32.9157469347119 0.146002034001307
32.9362208731472 0.277398049330083
32.9566948115826 0.244748212851059
32.9771687500179 0.218625441230901
32.9976426884532 0.136529734469609
33.0181166268885 0.338304842567182
33.0385905653238 0.155982015523622
33.0590645037591 0.226280003338927
33.0795384421945 0.245813389346432
33.1000123806298 0.152082173546136
33.1204863190651 0.110450939271372
33.1409602575004 0.0740446865221416
33.1614341959357 0.0571863319651094
33.181908134371 -0.0742387077330564
33.2023820728064 0.170654984094311
33.2228560112417 0.0965549074472101
33.243329949677 0.0576277289923088
33.2638038881123 0.0330401153962732
33.2842778265476 0.0501358166591035
33.3047517649829 0.103706499447467
33.3252257034183 0.0414084137613622
33.3456996418536 0.117147809600791
33.3661735802889 0.0613934369657514
33.3866475187242 0.186645295856245
33.4071214571595 -0.0031903637277293
33.4275953955948 -0.0380614584528374
33.4480693340302 0.0247403450142536
33.4685432724655 -0.00488911999312247
33.4890172109008 0.093102229858367
33.5094911493361 -0.00550435543127747
33.5299650877714 0.019603624137944
33.5504390262067 0.0434261685660311
33.570912964642 0.0229945278529846
33.5913869030774 0.0807045353321372
33.6118608415127 -0.00610005899651123
33.632334779948 -0.0238775884662936
33.6528087183833 0.026069863589457
33.6732826568186 -0.0242264528292604
33.6937565952539 0.0622126289442217
33.7142305336893 -0.0453420577567636
33.7347044721246 -0.0474113462655494
33.7551784105599 0.110692263417864
33.7756523489952 -0.00202081203985749
33.7961262874305 0.0454390106946208
33.8166002258658 0.0121863149546315
33.8370741643012 0.101346100740175
33.8575481027365 -0.067289965282082
33.8780220411718 -0.0249718831121402
33.8984959796071 -0.0542517360833323
33.9189699180424 0.0081638243430695
33.9394438564777 0.0497626996283369
33.9599177949131 0.0523157231058042
33.9803917333484 0.138218728108804
34.0008656717837 0.0926279646373356
34.021339610219 0.045751766024734
34.0418135486543 0.0965484656043309
34.0622874870896 0.157778480042794
34.082761425525 0.164337642673456
34.1032353639603 0.0394030368296519
34.1237093023956 0.197037162511379
34.1441832408309 0.132031686385306
34.1646571792662 0.111313691784765
34.1851311177015 0.171341512043091
34.2056050561368 0.194927647160282
34.2260789945722 0.0336345971363388
34.2465529330075 0.0364206953045954
34.2670268714428 0.060056774998384
34.2875008098781 0.256886586217706
34.3079747483134 0.26753512896256
34.3284486867487 0.26127323656628
34.3489226251841 0.115705075695533
34.3693965636194 0.156351479683651
34.3898705020547 0.0889416151973021
34.41034444049 0.0267567322364863
34.4308183789253 0.0492239141345356
34.4512923173606 0.144624410891451
34.471766255796 0.0369165558405657
34.4922401942313 0.15188159898188
34.5127141326666 0.0806653736487264
34.5331880711019 0.0276949631744392
34.5536620095372 0.125782867559017
34.5741359479725 0.00643950346912847
34.5946098864079 0.0420607042381054
34.6150838248432 0.0672818865326152
34.6355577632785 0.0716863836859902
34.6560317017138 0.0474616956982317
34.6765056401491 0.135232822569339
34.6969795785844 0.0342185142993121
34.7174535170197 0.0517104375548181
34.7379274554551 0.187708592335856
34.7584013938904 0.0411713119757606
34.7788753323257 0.0834527631411972
34.799349270761 0.0241883624988333
34.8198232091963 0.0625968600486688
34.8402971476316 -0.000540494209297027
34.860771086067 0.0535262997249371
34.8812450245023 -0.0160881748152968
34.9017189629376 -0.0140714178299977
34.9221929013729 0.0856182373475005
34.9426668398082 0.0512099573838647
34.9631407782435 0.0545787422790949
34.9836147166789 0.0892141753665241
35.0040886551142 -0.0271754100205142
35.0245625935495 0.0986391527846471
35.0450365319848 0.0226474471153408
35.0655104704201 0.0234953063049006
35.0859844088554 0.067328563686659
35.1064583472908 0.0018034692606177
35.1269322857261 -0.0337570603065589
35.1474062241614 -0.0627905250148686
35.1678801625967 0.0553280751356873
35.188354101032 -0.0218491765215578
35.2088280394673 -0.0495306133199365
35.2293019779027 0.0308775147405504
35.249775916338 0.0292710409932369
35.2702498547733 0.000337465438122297
35.2907237932086 0.10162887140854
35.3111977316439 -0.0236255744288427
35.3316716700792 0.00348037792597378
35.3521456085145 -0.0657511881936772
35.3726195469499 -0.00332530267866549
35.3930934853852 -0.00468485230478732
35.4135674238205 0.11506599626129
35.4340413622558 -0.00995817364709994
35.4545153006911 -0.0177781953632912
35.4749892391264 0.0525434311127175
35.4954631775618 0.169756705780925
35.5159371159971 0.0343824619746651
35.5364110544324 0.0110040330272709
35.5568849928677 -0.0201702477279238
35.577358931303 -0.0213799636242529
35.5978328697383 -0.0525209479950486
35.6183068081737 0.0145527212516976
35.638780746609 0.0569034553573102
35.6592546850443 -0.0348437456782111
35.6797286234796 0.0895715348118
35.7002025619149 0.17494096349401
35.7206765003502 0.0858478737017525
35.7411504387856 -0.00062440123163876
35.7616243772209 0.169430388693836
35.7820983156562 0.0374184934781767
35.8025722540915 0.146308663121383
35.8230461925268 0.0755279809567888
35.8435201309621 0.0412222803177271
35.8639940693974 0.00563114453753144
35.8844680078328 0.104171240282868
35.9049419462681 0.128509234220404
35.9254158847034 0.0786451263501395
35.9458898231387 0.0131726666720744
35.966363761574 0.0636022718528748
35.9868377000093 0.121861025225874
36.0073116384447 -0.0373114898755937
36.02778557688 0.0691576432151382
36.0482595153153 -0.0730544921685978
36.0687334537506 0.0425625206398657
36.0892073921859 -0.0162829850261383
36.1096813306212 0.0381694075000567
36.1301552690566 0.0210238648851178
36.1506292074919 -0.0351675295376221
36.1711031459272 0.0857410575651709
36.1915770843625 0.00354129286016303
36.2120510227978 0.0125040096806881
36.2325249612331 -0.0149749586399213
36.2529988996685 0.0604273045650019
36.2734728381038 0.121523299295458
36.2939467765391 0.116229692218113
36.3144207149744 0.00678606666630044
36.3348946534097 0.0106403393066872
36.355368591845 0.0718029268059404
36.3758425302804 -0.0219657541692744
36.3963164687157 0.0496467963810434
36.416790407151 0.0848176617902272
36.4372643455863 0.0887551753916105
36.4577382840216 0.0888030871851928
36.4782122224569 0.0732426471709746
36.4986861608922 0.0446780220156224
36.5191600993276 -0.0320470382808646
36.5396340377629 0.0540049662815147
36.5601079761982 0.0176777857027606
36.5805819146335 0.00610683664953848
36.6010558530688 0.191167119121848
36.6215297915041 0.127546133119692
36.6420037299395 0.0899834619764004
36.6624776683748 0.0849895223586423
36.6829516068101 -0.0124356857335837
36.7034255452454 -0.0473442456336102
36.7238994836807 0.0662013426585624
36.744373422116 0.112055245809601
36.7648473605514 0.107144547152838
36.7853212989867 0.0696984133549421
36.805795237422 0.0426855944159117
36.8262691758573 0.109439423669081
36.8467431142926 0.0525119844477824
36.8672170527279 0.0815386934186826
36.8876909911633 0.102769550581783
36.9081649295986 0.00422538927041494
36.9286388680339 0.14137495948458
36.9491128064692 0.110572427890944
36.9695867449045 0.043328211156175
36.9900606833398 0.0516214759469378
37.0105346217752 0.0260772222632331
37.0310085602105 -0.0241899665616057
37.0514824986458 -0.0262634238609114
37.0719564370811 0.0576172670319819
37.0924303755164 0.0113062727837407
37.1129043139517 0.0353244267276991
37.133378252387 0.0515467288638565
37.1538521908224 0.0612752625255464
37.1743261292577 0.0619058610461027
37.194800067693 0.0977093577588577
37.2152740061283 0.106185752663813
37.2357479445636 -0.019435787572367
37.2562218829989 -0.039571929616347
37.2766958214343 -0.0805247568014615
37.2971697598696 0.129841147538956
37.3176436983049 -0.00352629992842601
37.3381176367402 0.111820817463057
37.3585915751755 -0.0696904169532599
37.3790655136108 0.117304580155955
37.3995394520462 0.0360870587907032
37.4200133904815 0.0291049356176503
37.4404873289168 -0.10546470602987
37.4609612673521 -0.0292711293627081
37.4814352057874 0.0886057621633198
37.5019091442227 0.0788951352148803
37.5223830826581 0.0431594897919734
37.5428570210934 0.0386904925612659
37.5633309595287 0.071998560189424
37.583804897964 0.0727711926764485
37.6042788363993 0.0826750566890051
37.6247527748346 0.0248872355604282
37.6452267132699 0.0100848126240503
37.6657006517053 0.105976121213204
37.6861745901406 0.210998661327892
37.7066485285759 0.0647357663014447
37.7271224670112 0.120312436133864
37.7475964054465 0.0066349208251486
37.7680703438818 0.114328220375299
37.7885442823172 -0.0188472485490174
37.8090182207525 0.0459105973855323
37.8294921591878 0.182299674845614
37.8499660976231 0.0856324838312283
37.8704400360584 0.252002774342376
37.8909139744937 0.128025129712388
37.9113879129291 0.226720383274601
37.9318618513644 0.195223951695679
37.9523357897997 0.109056668308956
37.972809728235 0.193478949781099
37.9932836666703 0.115157462778775
38.0137576051056 0.159248457301984
38.034231543541 0.172106100017392
38.0547054819763 0.198001224258332
38.0751794204116 0.160110913358138
38.0956533588469 0.264164333983477
38.1161272972822 0.140369819467681
38.1366012357175 0.149404453144085
38.1570751741529 0.125903651679355
38.1775491125882 0.0138778317401576
38.1980230510235 0.0203582433264922
38.2184969894588 0.0502928031050267
38.2389709278941 0.00081692774242681
38.2594448663294 0.0945868672386929
38.2799188047647 -0.0212619617395085
38.3003927432001 0.118114190807823
38.3208666816354 0.0621944915473533
38.3413406200707 0.0857185238124165
38.361814558506 0.0246237876030118
38.3822884969413 -0.0533813837475265
38.4027624353766 -0.0236212997359444
38.423236373812 0.0491241824678368
38.4437103122473 0.0020946461971505
38.4641842506826 0.0683630081186637
38.4846581891179 0.0825646848990425
38.5051321275532 -0.0282169901283789
38.5256060659885 -0.0582528502969351
38.5460800044239 0.0718841877267087
38.5665539428592 -0.033639209390782
38.5870278812945 0.0353332083505928
38.6075018197298 0.0899993576175007
38.6279757581651 0.0652550717432749
38.6484496966004 0.00406910072791389
38.6689236350358 0.0119101945714197
38.6893975734711 0.0432054366071246
38.7098715119064 0.0276423268350285
38.7303454503417 0.0954291985884654
38.750819388777 0.0929202185341014
38.7712933272123 0.0774070533386029
38.7917672656477 0.0345667863353043
38.812241204083 0.157107750857537
38.8327151425183 0.0609153635719704
38.8531890809536 0.0689062911452694
38.8736630193889 0.112070116910767
38.8941369578242 0.0341568408684645
38.9146108962595 0.0369893796850276
38.9350848346949 0.0736927333604567
38.9555587731302 0.0309856518947518
38.9760327115655 0.0989723019545794
38.9965066500008 -0.00620148312672697
39.0169805884361 0.0435892966508322
39.0374545268714 -0.0888949420460756
39.0579284653068 0.0442624674492156
39.0784024037421 0.0954052751367063
39.0988763421774 -0.021404018983604
39.1193502806127 0.100084585088285
39.139824219048 -0.0453372459809605
39.1602981574833 0.0410284044753273
39.1807720959187 0.0649107031238141
39.201246034354 0.0106846499644999
39.2217199727893 -0.0383164216692813
39.2421939112246 0.0663449882224696
39.2626678496599 0.0382105463064204
39.2831417880952 0.0179052525825698
39.3036157265306 -0.0062896429490813
39.3240896649659 0.101042526378134
39.3445636034012 0.0260996772308806
39.3650375418365 0.106121392942494
39.3855114802718 0.0260035068463069
39.4059854187071 0.0031939356089854
39.4264593571424 0.130140595897196
39.4469332955778 0.104760154377606
39.4674072340131 0.0585630277168829
39.4878811724484 -0.0449091174183085
39.5083551108837 0.2422603856387
39.528829049319 0.0932486202212401
39.5493029877543 0.11612850299598
39.5697769261897 0.103868783962919
39.590250864625 0.090323629788724
39.6107248030603 0.136690957140062
39.6311987414956 0.0424499326835988
39.6516726799309 0.0680172230860014
39.6721466183662 -0.00796133831939638
39.6926205568016 0.0853475818007379
39.7130944952369 0.00810023344640509
39.7335684336722 0.0701924499509383
39.7540423721075 0.0763117313143371
39.7745163105428 0.0733330775366019
39.7949902489781 0.182350238617733
39.8154641874135 0.0270611312243965
39.8359381258488 0.119184505356592
39.8564120642841 0.118876611014321
39.8768860027194 0.0534811981975825
39.8973599411547 0.143050350239709
39.91783387959 0.0881049004740353
39.9383078180254 0.0279677655672277
39.9587817564607 0.0746181121859526
39.979255694896 0.054878856996877
39.9997296333313 0
