'Id: "" Comment: "" Operator: "lab manager" Anode: "Cu" Scantype: "coupled twotheta/theta" TimePerStep: "768" 
2.00009989738464 0
2.02057383581996 -0.0140453782145954
2.04104777425528 0.0944143620213474
2.06152171269059 -0.149881195958835
2.08199565112591 -0.0652270060217415
2.10246958956122 0.0267727045842618
2.12294352799654 -0.0777328830258638
2.14341746643186 0.233235397814553
2.16389140486717 0.0273858804388391
2.18436534330249 0.0482081481803337
2.2048392817378 -0.0233082156276345
2.22531322017312 0.0146597056816051
2.24578715860844 -0.100908921225285
2.26626109704375 -0.0318634623261884
2.28673503547907 0.0809852340774073
2.30720897391438 0.106703632264876
2.3276829123497 -0.065385351097117
2.34815685078502 0.120707867324762
2.36863078922033 0.00352495419718111
2.38910472765565 0.0843679928534733
2.40957866609097 -0.186242183373029
2.43005260452628 -0.0862099174416468
2.4505265429616 0.185806633606943
2.47100048139691 0.032151219772738
2.49147441983223 0.107771757722405
2.51194835826755 0.0637099141226121
2.53242229670286 0.0119448556400234
2.55289623513818 -0.128252584392024
2.57337017357349 -0.0255081763426004
2.59384411200881 0.114913845341265
2.61431805044413 -0.0427319311909976
2.63479198887944 -0.0804767559393875
2.65526592731476 0.0319595218662037
2.67573986575007 0.0169009181223324
2.69621380418539 0.0475245161623349
2.71668774262071 0.102996982652876
2.73716168105602 -0.0627754324060436
2.75763561949134 0.0410926876522432
2.77810955792665 0.0864763428277361
2.79858349636197 0.0421255331204342
2.81905743479729 0.0330402585303383
2.8395313732326 0.0175538523907833
2.86000531166792 -0.154073268631567
2.88047925010324 0.114513062129955
2.90095318853855 -0.0868434053246506
2.92142712697387 -0.0797572543287162
2.94190106540918 0.0809012328194623
2.9623750038445 0.056773171751512
2.98284894227982 0.0184314791341016
3.00332288071513 0.0166574049672314
3.02379681915045 0.0553571992508992
3.04427075758576 -0.0542712213482259
3.06474469602108 -0.0794910944249851
3.0852186344564 0.000843674769546713
3.10569257289171 0.0409231457479516
3.12616651132703 0.0199139851768947
3.14664044976234 0.00422244305637781
3.16711438819766 0.015983936053067
3.18758832663298 0.0799380475002944
3.20806226506829 0.0788972773980617
3.22853620350361 0.106611625746369
3.24901014193892 0.00162275921188163
3.26948408037424 0.0308577611279342
3.28995801880956 -0.146829201838809
3.31043195724487 -0.0431765353308514
3.33090589568019 0.185585416294312
3.35137983411551 0.0654983197033462
3.37185377255082 0.162968424896256
3.39232771098614 0.164193648539702
3.41280164942145 0.0626635739670215
3.43327558785677 0.150044867844882
3.45374952629209 -0.0541312198267203
3.4742234647274 0.058208227618884
3.49469740316272 -0.00772845648497258
3.51517134159803 -0.0136600221382892
3.53564528003335 0.00874551711442621
3.55611921846867 -0.0143125751823211
3.57659315690398 -0.00987761216637484
3.5970670953393 0.170447885966776
3.61754103377461 0.0409868358838018
3.63801497220993 0.0626767375846982
3.65848891064525 0.174319674402801
3.67896284908056 0.209248979671443
3.69943678751588 0.119287570057291
3.71991072595119 0.210425028893679
3.74038466438651 0.312088439513938
3.76085860282183 0.178184051918071
3.78133254125714 0.188920199439409
3.80180647969246 0.267473965411287
3.82228041812778 0.334418266500371
3.84275435656309 0.32334685270666
3.86322829499841 0.390509724030156
3.88370223343372 0.38486521380419
3.90417617186904 0.460059155362099
3.92465011030436 0.702029048703882
3.94512404873967 0.692806143829533
3.96559798717499 0.98317169073906
3.9860719256103 0.924688189432454
4.00654586404562 1.01865772324306
4.02701980248094 1.31586154217087
4.04749374091625 1.31109131288255
4.06796767935157 1.60330536871144
4.08844161778688 1.9490141263242
4.1089155562222 2.08259258572083
4.12938949465752 2.48060324690134
4.14986343309283 3.16908777653239
4.17033737152815 3.80038992461397
4.19081130996346 4.52294719114609
4.21128524839878 6.00082207612875
4.2317591868341 8.22229582956196
4.25223312526941 8.14570178477903
4.27270706370473 5.39734202511332
4.29318100214005 2.90039363389813
4.31365494057536 1.70563786113349
4.33412887901068 0.964116373486058
4.35460281744599 0.5651520876225
4.37507675588131 0.460567920209469
4.39555069431663 0.397759704580323
4.41602463275194 0.28427952406838
4.43649857118726 0.341481545340309
4.45697250962257 0.350615768396108
4.47744644805789 0.264807193235783
4.49792038649321 0.164784986525995
4.51839432492852 0.114351231600081
4.53886826336384 0.0796517617913727
4.55934220179915 0.116676160433203
4.57981614023447 0.230632760858907
4.60029007866979 0.178031979735149
4.6207640171051 0.00444673372859694
4.64123795554042 0.114824939505918
4.66171189397573 0.0234895137337785
4.68218583241105 -0.0078407935878223
4.70265977084637 -0.20442639912555
4.72313370928168 0.00927682427156584
4.743607647717 0.0655372494525536
4.76408158615232 -0.0148117902492527
4.78455552458763 -0.05468696150052
4.80502946302295 0.0151011639530662
4.82550340145826 -0.0504180921428086
4.84597733989358 0.0872969368785227
4.8664512783289 -0.0535245823162748
4.88692521676421 -0.0301743163938654
4.90739915519953 0.0336498179790832
4.92787309363484 0.0741457374692376
4.94834703207016 0.162928025409932
4.96882097050548 0.048694598467833
4.98929490894079 0.118164206642938
5.00976884737611 -0.0869964833980835
5.03024278581142 0.0868583616781002
5.05071672424674 -0.0295420914618427
5.07119066268206 -0.0338540928179127
5.09166460111737 0.0309357607701033
5.11213853955269 0.0385432328086572
5.132612477988 -0.00582334336891654
5.15308641642332 -0.0448723010959494
5.17356035485864 0.0346776096275558
5.19403429329395 0.046628472134934
5.21450823172927 0.135511536426184
5.23498217016459 -0.0241940308320263
5.2554561085999 0.14042843702697
5.27593004703522 0.129378940003173
5.29640398547053 0.00776164476324637
5.31687792390585 0.137555717973865
5.33735186234117 0.171104909635012
5.35782580077648 0.262055053080034
5.3782997392118 -0.0583438516910627
5.39877367764711 0.0888144453217081
5.41924761608243 -0.107667972548315
5.43972155451775 0.100906811365536
5.46019549295306 0.206726297063259
5.48066943138838 0.0366134012115171
5.50114336982369 0.285880623810313
5.52161730825901 0.337340464859655
5.54209124669433 0.0881283410262018
5.56256518512964 0.560379668976625
5.58303912356496 0.566594448710915
5.60351306200027 0.51172059689574
5.62398700043559 0.722581030197782
5.64446093887091 1.05464449861702
5.66493487730622 0.882911002153473
5.68540881574154 1.09930762414045
5.70588275417686 1.43300103124465
5.72635669261217 1.60143914013271
5.74683063104749 1.95878861747132
5.7673045694828 2.4516640465938
5.78777850791812 3.03579459416681
5.80825244635344 3.81274276019037
5.82872638478875 4.76948771133113
5.84920032322407 6.19769611425577
5.86967426165938 7.37731588563094
5.8901482000947 6.28490952545665
5.91062213853002 3.79157078373291
5.93109607696533 2.03922674379303
5.95157001540065 0.966679488970359
5.97204395383596 0.586949852598234
5.99251789227128 0.577121168009975
6.0129918307066 0.379901768538921
6.03346576914191 0.285656237518414
6.05393970757723 0.216259574948443
6.07441364601254 0.229003447495678
6.09488758444786 0.244460771826778
6.11536152288318 0.217058631275095
6.13583546131849 0.248359525840608
6.15630939975381 0.00372803885666717
6.17678333818913 0.138112086989932
6.19725727662444 0.152813753573734
6.21773121505976 0.0764788719414105
6.23820515349507 0.0614511920929539
6.25867909193039 0.0426265473617033
6.27915303036571 0.0278174377476685
6.29962696880102 0.19801344658416
6.32010090723634 0.210766657204537
6.34057484567165 0.314774986275441
6.36104878410697 0.11420510046356
6.38152272254229 0.0634840831022161
6.4019966609776 -0.019679732475253
6.42247059941292 -0.0428384296021852
6.44294453784823 0.0460913250547497
6.46341847628355 0.0140366148288995
6.48389241471887 0.142247439720256
6.50436635315418 -0.0289116169378565
6.5248402915895 0.0995177781879055
6.54531423002481 0.10566062509754
6.56578816846013 0.22128775712439
6.58626210689545 0.0818158409350962
6.60673604533076 0.0205782098630185
6.62720998376608 0.268043613908147
6.6476839222014 0.209628719737151
6.66815786063671 0.153927277350022
6.68863179907203 0.177762203413428
6.70910573750734 0.0910293312607207
6.72957967594266 0.328624494225209
6.75005361437798 0.411381025640234
6.77052755281329 0.240340592172465
6.79100149124861 0.428784443821912
6.81147542968392 0.436347997255225
6.83194936811924 0.403656252472414
6.85242330655456 0.733052959473469
6.87289724498987 0.8620381182584
6.89337118342519 0.965090895493867
6.9138451218605 1.27137795784655
6.93431906029582 1.40199305531643
6.95479299873114 1.79313410457018
6.97526693716645 2.28985318894115
6.99574087560177 2.54579614176264
7.01621481403708 3.13778587970136
7.0366887524724 4.0671244860906
7.05716269090772 4.69318696093038
7.07763662934303 5.77638997088737
7.09811056777835 7.23340018262824
7.11858450621367 9.5629155128196
7.13905844464898 11.3521755447949
7.1595323830843 13.7496177785541
7.18000632151961 13.9765963807638
7.20048025995493 9.92113218475732
7.22095419839025 6.98296477386807
7.24142813682556 5.21027123142937
7.26190207526088 4.36346822410789
7.28237601369619 3.96729533523694
7.30284995213151 3.91758589814986
7.32332389056683 3.25470449618
7.34379782900214 2.42917196266066
7.36427176743746 1.58551954759187
7.38474570587277 1.08312225097362
7.40521964430809 0.916771739472564
7.42569358274341 0.911988846422058
7.44616752117872 0.744554821822089
7.46664145961404 0.694417582339326
7.48711539804935 0.527202127973769
7.50758933648467 0.360095958725417
7.52806327491999 0.426171991260942
7.5485372133553 0.446784392247003
7.56901115179062 0.44276649501693
7.58948509022594 0.394587049570743
7.60995902866125 0.372558555908413
7.63043296709657 0.273816430696638
7.65090690553188 0.261121090602059
7.6713808439672 0.361816285624687
7.69185478240252 0.32459993243119
7.71232872083783 0.224992864354899
7.73280265927315 0.253099248062475
7.75327659770846 0.188867000220596
7.77375053614378 0.196358620829254
7.7942244745791 0.236511609888458
7.81469841301441 0.114013467398193
7.83517235144973 0.188239193358471
7.85564628988504 0.222209621102625
7.87612022832036 0.133893500630642
7.89659416675568 0.308707498609207
7.91706810519099 0.388578698371637
7.93754204362631 0.135225849917945
7.95801598206162 0.237451036581457
7.97848992049694 0.223900091695509
7.99896385893226 0.124520931926767
8.01943779736757 0.271344807275231
8.03991173580289 0.104475884407567
8.06038567423821 0.0848516633237758
8.08085961267352 0.280180477357191
8.10133355110884 -0.00875642349218819
8.12180748954415 0.0123117941089723
8.14228142797947 0.211874713494005
8.16275536641479 0.112067751329577
8.1832293048501 0.139974240949021
8.20370324328542 0.210958765685671
8.22417718172073 0.227365075539528
8.24465112015605 0.0850265038439232
8.26512505859137 0.324307633932192
8.28559899702668 0.295468882471
8.306072935462 0.148249832793679
8.32654687389731 0.212077568233566
8.34702081233263 0.325493755457325
8.36749475076795 0.324435894464955
8.38796868920326 0.266195651923127
8.40844262763858 0.318741777831836
8.42891656607389 0.401345105524418
8.44939050450921 0.36817230166754
8.46986444294453 0.221827532927868
8.49033838137984 0.312571215972067
8.51081231981516 0.230247100800141
8.53128625825047 0.170167687412087
8.55176019668579 0.0841558924745716
8.57223413512111 0.185753382654262
8.59270807355642 0.0231372412844915
8.61318201199174 0.141880385031927
8.63365595042706 0.168284897229902
8.65412988886237 0.0684966112117506
8.67460382729769 0.0482446936441378
8.695077765733 -0.035700022139602
8.71555170416832 0.155204130527194
8.73602564260364 -0.1225324316888
8.75649958103895 0.0803090412124121
8.77697351947427 -0.00840686743583841
8.79744745790958 0.221996925699783
8.8179213963449 0.133499587285945
8.83839533478022 0.119330283989313
8.85886927321553 0.015426515809886
8.87934321165085 0.0197049494143338
8.89981715008616 -0.0748656651973483
8.92029108852148 -0.0193751821953108
8.9407650269568 -0.0446309367079387
8.96123896539211 0.204962177229972
8.98171290382743 0.0757583262850908
9.00218684226274 0.12114292712408
9.02266078069806 0.278615979746942
9.04313471913338 -0.0455725158463229
9.06360865756869 0.10691077367762
9.08408259600401 0.178774181652099
9.10455653443933 -0.0396177085895482
9.12503047287464 0.10538093628601
9.14550441130996 0.0564784496121082
9.16597834974527 0.174351914722079
9.18645228818059 0.0774909149492559
9.20692622661591 0.105739200293639
9.22740016505122 0.128888437421894
9.24787410348654 0.105271959667354
9.26834804192185 0.159889767030021
9.28882198035717 0.106543942843227
9.30929591879249 0.0454949037736394
9.3297698572278 0.181169733154592
9.35024379566312 -0.00466073568058574
9.37071773409843 0.0322743306014454
9.39119167253375 0.0875478486673478
9.41166561096907 0.202826485183789
9.43213954940438 0.04217274015077
9.4526134878397 -0.0220175530983755
9.47308742627501 -0.0538731058072666
9.49356136471033 0.0706306266010487
9.51403530314565 0.147066560793236
9.53450924158096 0.138976363435964
9.55498318001628 0.215630867862564
9.5754571184516 0.185623824073036
9.59593105688691 0.0515593987340469
9.61640499532223 0.0764584251789314
9.63687893375754 0.131414653407689
9.65735287219286 0.0640843334203182
9.67782681062818 0.0411341318834873
9.69830074906349 0.105532798797195
9.71877468749881 -0.0656363325052242
9.73924862593412 -0.0257586786904382
9.75972256436944 0.0430525302886538
9.78019650280476 0.121087607718284
9.80067044124007 0.0794403035984557
9.82114437967539 0.0899856179291658
9.8416183181107 0.172254800710415
9.86209225654602 0.108799935275537
9.88256619498134 0.0324335216245308
9.90304013341665 0.0668534764240648
9.92351407185197 0.206851466340803
9.94398801028728 0.00581290804141589
9.9644619487226 0.0405607181925677
9.98493588715792 0.0819282301275913
10.0054098255932 0.224967527179822
10.0258837640285 0.116814026015924
10.0463577024639 0.135071893302565
10.0668316408992 0.20291821237308
10.0873055793345 0.347696733227466
10.1077795177698 0.583730372532392
10.1282534562051 0.405810796954525
10.1487273946404 0.196750506493864
10.1692013330758 0.0125390844837407
10.1896752715111 0.0992702809241572
10.2101492099464 -0.0105038208515532
10.2306231483817 0.0334771958232753
10.251097086817 0.0280883309486428
10.2715710252523 0.0215066678578835
10.2920449636877 0.0397738732176623
10.312518902123 0.00867119702798196
10.3329928405583 0.0688236392888399
10.3534667789936 0.0340332833335717
10.3739407174289 -0.0996061208378252
10.3944146558642 -0.0430654509424371
10.4148885942996 0.172438670736824
10.4353625327349 0.0169583275332908
10.4558364711702 -0.0498710638863698
10.4763104096055 0.0904400798111761
10.4967843480408 -0.077733241374072
10.5172582864761 0.0133173058912182
10.5377322249115 -0.00619994505961824
10.5582061633468 0.0225691724400841
10.5786801017821 0.0110829917236593
10.5991540402174 -0.00940848720889276
10.6196279786527 0.0209905689757608
10.640101917088 0.0697280769442864
10.6605758555233 0.0209186200300191
10.6810497939587 -0.0199690517670423
10.701523732394 -0.000851605113564511
10.7219976708293 -0.145017211501543
10.7424716092646 0.0859264672276865
10.7629455476999 -0.0593226522592129
10.7834194861352 0.0390270967044273
10.8038934245706 0.00857988078527403
10.8243673630059 0.0941273666499924
10.8448413014412 0.205825804298584
10.8653152398765 0.0715397770643815
10.8857891783118 -0.000136965052615068
10.9062631167471 0.0975664112809279
10.9267370551825 -0.0233709272683236
10.9472109936178 0.0133531026329638
10.9676849320531 0.132217667651458
10.9881588704884 0.0493686011204902
11.0086328089237 0.0642850697067297
11.029106747359 0.162644156743508
11.0495806857944 0.134810445564159
11.0700546242297 0.25291935283535
11.090528562665 0.200564628557078
11.1110025011003 0.199100439396014
11.1314764395356 0.141755952018822
11.1519503779709 0.199104083092169
11.1724243164063 0.100311499282723
11.1928982548416 0.178711533923815
11.2133721932769 0.102272937015446
11.2338461317122 0.0975582085576179
11.2543200701475 0.104671515216994
11.2747940085828 0.0988732736602434
11.2952679470181 0.158288483887366
11.3157418854535 0.156615062565027
11.3362158238888 0.18109259302656
11.3566897623241 0.127554408605301
11.3771637007594 0.221260925967914
11.3976376391947 0.305962145114399
11.41811157763 0.39858514937809
11.4385855160654 0.280379938758986
11.4590594545007 0.315929846590423
11.479533392936 0.397161956205732
11.5000073313713 0.31574293427158
11.5204812698066 0.386776947454634
11.5409552082419 0.379795245754894
11.5614291466773 0.319537412505693
11.5819030851126 0.483347197707031
11.6023770235479 0.412891268025576
11.6228509619832 0.360773790127992
11.6433249004185 0.293140597347616
11.6637988388538 0.189158356351111
11.6842727772892 0.184243733805146
11.7047467157245 0.195063396376387
11.7252206541598 0.207294427398167
11.7456945925951 0.236561826870487
11.7661685310304 0.336251011460012
11.7866424694657 0.274591147833409
11.807116407901 0.296373902657346
11.8275903463364 0.507068025931822
11.8480642847717 0.729590184323505
11.868538223207 0.604565377832394
11.8890121616423 0.799962356458488
11.9094861000776 0.871770703535117
11.9299600385129 0.865563335728962
11.9504339769483 0.872486086373343
11.9709079153836 0.86910145546826
11.9913818538189 0.811138609680382
12.0118557922542 1.07489963234304
12.0323297306895 1.18903035678958
12.0528036691248 1.10014536635332
12.0732776075602 1.39288007770094
12.0937515459955 1.20004699083242
12.1142254844308 1.17398985574778
12.1346994228661 1.29387533911368
12.1551733613014 0.946422190930118
12.1756472997367 0.888140827863766
12.1961212381721 0.827364583247946
12.2165951766074 0.666437207082669
12.2370691150427 0.587650366034596
12.257543053478 0.624858226770397
12.2780169919133 0.558008705956739
12.2984909303486 0.350643470260284
12.318964868784 0.494950019681037
12.3394388072193 0.527386687552327
12.3599127456546 0.434932640540824
12.3803866840899 0.506650378646528
12.4008606225252 0.449571151869437
12.4213345609605 0.555361626876219
12.4418084993958 0.329230137000207
12.4622824378312 0.250343348908067
12.4827563762665 0.235367929266468
12.5032303147018 0.133262211408739
12.5237042531371 0.187515778668217
12.5441781915724 -0.00421511895509859
12.5646521300077 0.194788268538791
12.5851260684431 0.121765524483221
12.6056000068784 -0.0605229344551444
12.6260739453137 0.0203187250570307
12.646547883749 0.122103003019745
12.6670218221843 -0.00777426723366954
12.6874957606196 -0.124153540117788
12.707969699055 0.0759827221152994
12.7284436374903 0.0639886861322599
12.7489175759256 0.036478935266427
12.7693915143609 -0.132848613815535
12.7898654527962 -0.00519187778028954
12.8103393912315 0.109972825729055
12.8308133296669 -0.00522193564439161
12.8512872681022 0.0893280047660323
12.8717612065375 -0.0347627697063381
12.8922351449728 0.0339640742718318
12.9127090834081 -0.022199796632793
12.9331830218434 0.0636727009131214
12.9536569602787 -0.0365434330904249
12.9741308987141 -0.011650281976765
12.9946048371494 0.0914771542541014
13.0150787755847 -0.0630986243978279
13.03555271402 0.0910286320674494
13.0560266524553 -0.0724431596833991
13.0765005908906 0.0988297503496226
13.096974529326 0.0488577788331851
13.1174484677613 0.0146200924339531
13.1379224061966 -0.0429458088480728
13.1583963446319 0.0883996583204407
13.1788702830672 0.0557919106061596
13.1993442215025 0.133970531342418
13.2198181599379 -0.0077936461374508
13.2402920983732 -0.0426777051667808
13.2607660368085 0.120464187587762
13.2812399752438 -0.00013880120715512
13.3017139136791 0.00697166178179966
13.3221878521144 -0.010548173445374
13.3426617905498 -0.00452122355534061
13.3631357289851 -0.00634915293119646
13.3836096674204 0.0101613694768189
13.4040836058557 -0.00577090633129239
13.424557544291 -0.046007735332452
13.4450314827263 0.15865638745026
13.4655054211617 0.000148545350178927
13.485979359597 0.159458321700636
13.5064532980323 0.0584607165016347
13.5269272364676 0.13074947975317
13.5474011749029 0.11981419478858
13.5678751133382 0.112894444941194
13.5883490517735 0.120406896877682
13.6088229902089 0.197039050598043
13.6292969286442 0.202165906102276
13.6497708670795 0.0810999633903806
13.6702448055148 0.125507889129026
13.6907187439501 0.236431349984877
13.7111926823854 -0.00279632070873335
13.7316666208208 0.10834571038153
13.7521405592561 0.289909526588997
13.7726144976914 0.130436794580338
13.7930884361267 0.116906681022219
13.813562374562 0.0409858525813049
13.8340363129973 0.15397639259093
13.8545102514327 0.201972051051095
13.874984189868 0.225337411295132
13.8954581283033 0.269645389989709
13.9159320667386 0.256770987134824
13.9364060051739 0.324735036063813
13.9568799436092 0.176662536776675
13.9773538820446 0.177136822606742
13.9978278204799 0.201157893554015
14.0183017589152 0.225288249618494
14.0387756973505 0.181819557466846
14.0592496357858 0.0902830670990686
14.0797235742211 0.213699611848499
14.1001975126565 0.114569191715135
14.1206714510918 0.163985556698977
14.1411453895271 0.0820007901333584
14.1616193279624 0.139448225351613
14.1820932663977 0.0576820290204052
14.202567204833 0.151806367806404
14.2230411432683 0.110623325042942
14.2435150817037 0.120330817396687
14.263989020139 0.19004342820097
14.2844629585743 0.0984069907891261
14.3049368970096 0.210004838494488
14.3254108354449 0.203222387983723
14.3458847738802 0.179622139256829
14.3663587123156 0.204308258980476
14.3868326507509 0.195249497154662
14.4073065891862 0.295675020446054
14.4277805276215 0.292043162187986
14.4482544660568 0.369249755713789
14.4687284044921 0.337190634356798
14.4892023429275 0.418522048117013
14.5096762813628 0.394493996994435
14.5301502197981 0.474741897655729
14.5506241582334 0.387130333434228
14.5710980966687 0.442857220996601
14.591572035104 0.428380893676179
14.6120459735394 0.50255551813963
14.6325199119747 0.569026927720288
14.65299385041 0.466336789084818
14.6734677888453 0.497870518899885
14.6939417272806 0.474826033832161
14.7144156657159 0.385484583881641
14.7348896041512 0.430367002381661
14.7553635425866 0.467546205998887
14.7758374810219 0.447543028066652
14.7963114194572 0.253169968584956
14.8167853578925 0.3766145275538
14.8372592963278 0.239751704973183
14.8577332347631 0.217581500843106
14.8782071731985 0.259322665163568
14.8986811116338 0.286850197934567
14.9191550500691 0.111362015822774
14.9396289885044 0.275826868828188
14.9601029269397 0.415661423617473
14.980576865375 0.442324013523964
15.0010508038104 0.199564638547661
15.0215247422457 0.0806124653552309
15.041998680681 -0.0160950060533273
15.0624726191163 -0.000714025678012403
15.0829465575516 0.0434220731478416
15.1034204959869 0.0160528737575685
15.1238944344223 0.211449209484502
15.1443683728576 -0.0748160030046933
15.1648423112929 -0.014617763710016
15.1853162497282 -0.0576585166372987
15.2057901881635 0.0231079322192916
15.2262641265988 0.107889916193086
15.2467380650342 0.101635351950755
15.2672120034695 0.065542156158962
15.2876859419048 0.112891578817709
15.3081598803401 0.0106107032603282
15.3286338187754 0.145418279486819
15.3491077572107 0.288147640830518
15.369581695646 0.214840453958086
15.3900556340814 0.18330921886953
15.4105295725167 0.0581372688981782
15.431003510952 0.0697933540440332
15.4514774493873 0.0945795576404273
15.4719513878226 0.0517667130206943
15.4924253262579 0.205677736851501
15.5128992646933 0.118812629132846
15.5333732031286 0.14664013986473
15.5538471415639 0.15895193571382
15.5743210799992 0.168768850013451
15.5947950184345 0.285465882763619
15.6152689568698 0.236907617297661
15.6357428953052 0.301739886948908
15.6562168337405 0.211733525050695
15.6766907721758 0.292409364936354
15.6971647106111 0.426579906605886
15.7176386490464 0.303047233392623
15.7381125874817 0.278582178629901
15.7585865259171 0.298497242317717
15.7790604643524 0.378417424456073
15.7995344027877 0.448030225044968
15.820008341223 0.433116894084402
15.8404822796583 0.396177431574375
15.8609562180936 0.455701420848221
15.8814301565289 0.200230528572606
15.9019040949643 0.259973088080865
15.9223780333996 0.352377016039661
15.9428519718349 0.358952729115665
15.9633259102702 0.296627310642207
15.9837998487055 0.260452843952623
16.0042737871408 0.225689745713576
16.0247477255762 0.176713015925071
16.0452216640115 0.15518932125377
16.0656956024468 0.0243999116996745
16.0861695408821 -0.000811462737213664
16.1066434793174 0.244919781276437
16.1271174177527 0.27461447707396
16.1475913561881 0.210668457988689
16.1680652946234 0.152040057353957
16.1885392330587 0.198989691836431
16.209013171494 0.320267361436112
16.2294871099293 0.215091816152998
16.2499610483646 0.190754722653758
16.2704349868 0.0936102476050555
16.2909089252353 0.214022974340226
16.3113828636706 0.107982486192602
16.3318568021059 0.171322116495518
16.3523307405412 0.271229365248974
16.3728046789765 0.251454232452968
16.3932786174119 0.246111301440835
16.4137525558472 0.180981822212575
16.4342264942825 0.177159544768188
16.4547004327178 0.420842385774338
16.4751743711531 0.275311595231029
16.4956483095884 0.245775506471592
16.5161222480237 0.470254952829362
16.5365961864591 0.426614517637671
16.5570701248944 0.230739617563185
16.5775440633297 0.415182335939239
16.598018001765 0.373171839432498
16.6184919402003 0.414603961376297
16.6389658786356 0.503020368437302
16.659439817071 0.469150227282179
16.6799137555063 0.48486853791093
16.7003876939416 0.518925300323553
16.7208616323769 0.632518431186714
16.7413355708122 0.563929180500416
16.7618095092475 0.544928381597989
16.7822834476829 0.726557701146103
16.8027573861182 0.535900472478088
16.8232313245535 0.456029612260613
16.8437052629888 0.492153453827011
16.8641792014241 0.365626163843947
16.8846531398594 0.455353992311424
16.9051270782948 0.37071193922944
16.9256010167301 0.316127087931327
16.9460749551654 0.192641105083753
16.9665488936007 0.276295657353388
16.987022832036 0.192090744740227
17.0074967704713 0.121015950577604
17.0279707089067 0.253175441532189
17.048444647342 0.121121300937311
17.0689185857773 0.0842285287929762
17.0893925242126 -0.0658362082341555
17.1098664626479 0.140979173189252
17.1303404010832 0.0679559230632004
17.1508143395185 0.00025029138768648
17.1712882779539 -0.0165648051706213
17.1917622163892 0.0383439667216109
17.2122361548245 0.0282578570643822
17.2327100932598 0.0612497825243597
17.2531840316951 0.0422676597682082
17.2736579701304 -0.0976989278707362
17.2941319085658 -0.000577063725808014
17.3146058470011 0.0256109751384801
17.3350797854364 0.15216871578664
17.3555537238717 0.114773241552008
17.376027662307 0.03842455243458
17.3965016007423 0.126247648434358
17.4169755391777 0.124336279551343
17.437449477613 0.0287841957855336
17.4579234160483 0.0674559804702629
17.4783973544836 0.0658724669388652
17.4988712929189 -0.0293517614753265
17.5193452313542 -0.011185454772312
17.5398191697896 -0.0939331438918207
17.5602931082249 0.00942071465546246
17.5807670466602 0.0959567749866195
17.6012409850955 0.0211437871016478
17.6217149235308 0.0714400843338823
17.6421888619661 0.0528352500166567
17.6626628004014 0.107256367483303
17.6831367388368 0.103193020067156
17.7036106772721 0.0836139577682145
17.7240846157074 -0.0139808194135212
17.7445585541427 0.113794105188616
17.765032492578 0.099751231574626
17.7855064310133 0.0688905597445081
17.8059803694487 0.0641808396982623
17.826454307884 -0.03547167856411
17.8469282463193 0.147537171624057
17.8674021847546 -0.0261155264039043
17.8878761231899 0.0907056440186737
17.9083500616252 0.0748235995584595
17.9288240000606 -0.0646470764512164
17.9492979384959 -0.0113001340103541
17.9697718769312 0.0434581768810482
17.9902458153665 0.0397320228896566
18.0107197538018 0.00486515401547051
18.0311936922371 0.0156804869251575
18.0516676306725 -0.00855114504794983
18.0721415691078 0.0155035914294824
18.0926155075431 0.13341761302412
18.1130894459784 0.0704513364026306
18.1335633844137 0.0740005948983475
18.154037322849 -0.096820028155397
18.1745112612844 -0.0357605327586019
18.1949851997197 0.0056958862552992
18.215459138155 -0.0113321596135918
18.2359330765903 -0.0634071703652786
18.2564070150256 -0.00920630994992752
18.2768809534609 0.0906767522492962
18.2973548918962 0.145096182899061
18.3178288303316 0.120197815332696
18.3383027687669 0.0784816495502039
18.3587767072022 0.111093518884919
18.3792506456375 0.117773006670172
18.3997245840728 0.0243013629059646
18.4201985225081 0.0533348375922972
18.4406724609435 0.0889880140625016
18.4611463993788 0.0804796423165789
18.4816203378141 0.0265076390211954
18.5020942762494 0.0937386708430183
18.5225682146847 0.0191519044487139
18.54304215312 0.0123827565049482
18.5635160915554 0.074733310345055
18.5839900299907 0.00568273263570141
18.604463968426 0.0474185233768873
18.6249379068613 0.00723234923527794
18.6454118452966 -0.0341466231224579
18.6658857837319 -0.00249964369632077
18.6863597221673 0.0435795375136881
18.7068336606026 -0.0104924128257631
18.7273075990379 -0.0966101485835449
18.7477815374732 0.00361963679100189
18.7682554759085 0.0362503739494225
18.7887294143438 0.0520633128917152
18.8092033527792 0.0159022036178807
18.8296772912145 0.0124024627945851
18.8501512296498 -0.0873421595781714
18.8706251680851 0.000522503166278738
18.8910991065204 0.053340201027934
18.9115730449557 0.0593921840067954
18.932046983391 0.104615952102864
18.9525209218264 -0.0518739113505299
18.9729948602617 -0.00643157302005039
18.993468798697 0.0447040508803321
19.0139427371323 0.0673031265645865
19.0344166755676 0.0795948206993813
19.0548906140029 0.0255895499513806
19.0753645524383 0.101901897653921
19.0958384908736 -0.0365202195263342
19.1163124293089 0.0556356984106168
19.1367863677442 -0.0148595152018922
19.1572603061795 0.0631920563028049
19.1777342446148 -0.0591679204086268
19.1982081830502 0.0451438879971482
19.2186821214855 0.101387898186796
19.2391560599208 0.112168276826984
19.2596299983561 0.0149850239177094
19.2801039367914 -0.0430264438743589
19.3005778752267 -0.00848070988255424
19.3210518136621 0.127736809226457
19.3415257520974 0.0453136134526732
19.3619996905327 0.0554476194627629
19.382473628968 -0.0684236727432755
19.4029475674033 -0.00989401316544179
19.4234215058386 0.041268261310165
19.4438954442739 0.0313419042363097
19.4643693827093 -0.00842308438700555
19.4848433211446 0.0925462121068853
19.5053172595799 0.0217497937179821
19.5257911980152 0.0851772437796181
19.5462651364505 0.07449522895846
19.5667390748858 0.138141249254507
19.5872130133212 0.10814655466776
19.6076869517565 0.15638614519822
19.6281608901918 0.0979641875125515
19.6486348286271 0.129495264944091
19.6691087670624 0.0999377108261682
19.6895827054977 0.136895691825451
19.7100566439331 0.128390041275273
19.7305305823684 0.0548895091756345
19.7510045208037 0.0960815955265351
19.771478459239 -0.00975244967202338
19.7919523976743 0.135824873579956
19.8124263361096 0.00546981528247506
19.832900274545 0.131734458768866
19.8533742129803 -0.0270478626275363
19.8738481514156 -0.0177521489067334
19.8943220898509 0.0100836556807263
19.9147960282862 0.097924578718725
19.9352699667215 0.102541453540597
19.9557439051569 0.00700719681300765
19.9762178435922 0.155071808535958
19.9966917820275 0.258974872042781
20.0171657204628 0.249705970666808
20.0376396588981 0.282213021074711
20.0581135973334 0.184621023266484
20.0785875357687 0.286357060575464
20.0990614742041 0.394712799668316
20.1195354126394 0.417240323878375
20.1400093510747 0.202897966538972
20.16048328951 0.271216977650108
20.1809572279453 0.307093190545118
20.2014311663806 0.287089105224
20.221905104816 0.142194305020087
20.2423790432513 0.134127539933382
20.2628529816866 0.0714825599638813
20.2833269201219 0.11181144844492
20.3038008585572 0.170478788709832
20.3242747969925 0.152432497425283
20.3447487354279 0.0732975745912727
20.3652226738632 0.0632823535411357
20.3856966122985 0.0572826676082047
20.4061705507338 0.154256850125813
20.4266444891691 0.164100734427293
20.4471184276044 0.153220570512646
20.4675923660398 0.175001775048539
20.4880663044751 0.28022559803497
20.5085402429104 0.0925899561386084
20.5290141813457 0.192824016026118
20.549488119781 0.162959027697501
20.5699620582163 0.14101582448609
20.5904359966516 0.323608989725218
20.610909935087 0.283655190081552
20.6313838735223 0.151362758888425
20.6518578119576 0.293919196145838
20.6723317503929 0.42616825185379
20.6928056888282 0.437432842678948
20.7132796272635 0.526931718621312
20.7337535656989 0.449873213014215
20.7542275041342 0.365111492524323
20.7747014425695 0.607281973818307
20.7951753810048 0.646436740229489
20.8156493194401 0.634919541757887
20.8361232578754 0.738094961736822
20.8565971963108 0.587473416832953
20.8770711347461 0.594513240379639
20.8975450731814 0.785256099043521
20.9180190116167 0.86673324282461
20.938492950052 0.596757171722905
20.9589668884873 0.708400802405075
20.9794408269227 0.727705801537782
20.999914765358 0.648161752454355
21.0203887037933 0.590862405154814
21.0408626422286 0.657370259639139
21.0613365806639 0.641956149240669
21.0818105190992 0.473005490626072
21.1022844575346 0.60103911712868
21.1227583959699 0.619807028748499
21.1432323344052 0.675142558818854
21.1637062728405 0.666785290673085
21.1841802112758 0.42676647431118
21.2046541497111 0.473315276399819
21.2251280881464 0.555129613605665
21.2456020265818 0.547209485928721
21.2660759650171 0.446950726702306
21.2865499034524 0.56294708592644
21.3070238418877 0.647802730267774
21.327497780323 0.525736409726314
21.3479717187583 0.493623124302062
21.3684456571937 0.409535790661682
21.388919595629 0.476599408805174
21.4093935340643 0.42918897873254
21.4298674724996 0.631887833777113
21.4503414109349 0.546935557272219
21.4708153493702 0.542821732551201
21.4912892878056 0.65340052628073
21.5117632262409 0.740651105127454
21.5322371646762 0.592333885758054
21.5527111031115 0.642042618172531
21.5731850415468 0.551235635704213
21.5936589799821 0.584235855019762
21.6141329184175 0.645991192785856
21.6346068568528 0.491709982335819
21.6550807952881 0.547173473669656
21.6755547337234 0.477746250120697
21.6960286721587 0.49957414502228
21.716502610594 0.400417575041067
21.7369765490294 0.382099456843728
21.7574504874647 0.465453123763594
21.7779244259 0.335374409134
21.7983983643353 0.205404979621611
21.8188723027706 0.183617751893095
21.8393462412059 0.167148142615118
21.8598201796412 0.300527401787681
21.8802941180766 0.103286779410784
21.9007680565119 0.175686692151091
21.9212419949472 0.209133390008604
21.9417159333825 0.0903456229833249
21.9621898718178 0.0354692244085834
21.9826638102531 0.218983360951049
22.0031377486885 -0.0179661340559473
22.0236116871238 0.17748532272093
22.0440856255591 -0.0149747687183208
22.0645595639944 0.077830674959634
22.0850335024297 0.078297487088129
22.105507440865 -0.00315766566617109
22.1259813793004 0.0339860500300699
22.1464553177357 -0.00428178248981803
22.166929256171 0.1059971701075
22.1874031946063 0.0353958244886903
22.2078771330416 0.0378204306537545
22.2283510714769 0.20311473860269
22.2488250099123 -0.00387750166450079
22.2692989483476 0.00147912651884663
22.2897728867829 -0.0125862101805989
22.3102468252182 -0.0200318450961724
22.3307207636535 -0.0167638083873485
22.3511947020888 0.0269780967720144
22.3716686405241 -0.128389462951417
22.3921425789595 -0.0193248208909764
22.4126165173948 0.115801396220975
22.4330904558301 0.0205681484501318
22.4535643942654 0.0908087691298289
22.4740383327007 0.170273258260063
22.494512271136 -0.0170800508258276
22.5149862095714 0.0235405085388196
22.5354601480067 0.113749519687339
22.555934086442 0.155890732619732
22.5764080248773 0.0991828973359979
22.5968819633126 0.135032263836135
22.6173559017479 0.100678415453479
22.6378298401833 0.250027602188029
22.6583037786186 -0.0380139259602156
22.6787777170539 0.0412413310087462
22.6992516554892 0.10367878976158
22.7197255939245 0.0242984502982869
22.7401995323598 0.157266979285533
22.7606734707952 0.0755010433899849
22.7811474092305 0.14879230927831
22.8016213476658 0.19875536028384
22.8220952861011 0.192838113073243
22.8425692245364 0.0594259843131855
22.8630431629717 0.0784668906703338
22.8835171014071 0.184856665478021
22.9039910398424 0.159845308736249
22.9244649782777 0.107599487111681
22.944938916713 0.00989003393765259
22.9654128551483 0.141456532547497
22.9858867935836 -0.0771281003921182
23.0063607320189 0.0924173851188045
23.0268346704543 -0.0282924275863997
23.0473086088896 0.137565378158936
23.0677825473249 0.0274908023548101
23.0882564857602 0.0998171783345569
23.1087304241955 0.00819033943150996
23.1292043626308 -0.028639714354331
23.1496783010662 -0.00734168264925913
23.1701522395015 0.0544302175063527
23.1906261779368 0.0238634861125037
23.2111001163721 0.0741352065025277
23.2315740548074 -0.0135046213235763
23.2520479932427 0.0122460859675259
23.2725219316781 0.039408161709167
23.2929958701134 -0.0140496440986528
23.3134698085487 -0.0153148314559325
23.333943746984 -0.0261150610328773
23.3544176854193 0.09470441117405
23.3748916238546 -0.0239501648351507
23.39536556229 0.0853691276061886
23.4158395007253 0.1231831218314
23.4363134391606 0.00615848450715156
23.4567873775959 -0.0313297843665579
23.4772613160312 0.0419683152102717
23.4977352544665 0.0528756999043073
23.5182091929019 0.0638923697155481
23.5386831313372 0.114080824643996
23.5591570697725 0.0758368980229827
23.5796310082078 0.0637439231858416
23.6001049466431 0.0934269001325735
23.6205788850784 0.164885828863177
23.6410528235137 0.136193626044322
23.6615267619491 0.107610708342671
23.6820007003844 0.0687204090915599
23.7024746388197 0.214835228290988
23.722948577255 0.173559332607622
23.7434225156903 0.213121888708129
23.7638964541256 0.125189563259175
23.784370392561 0.148043606260761
23.8048443309963 0.180121517712885
23.8253182694316 0.283923297615549
23.8457922078669 0.143042695968751
23.8662661463022 0.0895109627724941
23.8867400847375 0.0790572646934419
23.9072140231729 0.21454618506493
23.9276879616082 0.0949360572202906
23.9481619000435 0.15251854782619
23.9686358384788 -0.0137480097840389
23.9891097769141 0.0766051343896056
24.0095837153494 0.0186300636804564
24.0300576537848 -0.00407947191148734
24.0505315922201 -0.0514193057195585
24.0710055306554 -0.02312902107709
24.0914794690907 0.00136429868258442
24.111953407526 -0.0768976797738685
24.1324273459613 0.0272412935535508
24.1529012843966 -0.0299687813351575
24.173375222832 0.0157950122266744
24.1938491612673 -0.0151548257609552
24.2143230997026 -0.0459953786313783
24.2347970381379 -0.0870382359432921
24.2552709765732 0.044812972781389
24.2757449150085 0.0192213832899431
24.2962188534439 -0.0205838377509633
24.3166927918792 0.0256577263253358
24.3371667303145 0.0160189921855077
24.3576406687498 -0.0390833735037814
24.3781146071851 -0.0472014540758644
24.3985885456204 0.000779333802592122
24.4190624840558 -0.0592035098684127
24.4395364224911 0.0749333482444559
24.4600103609264 0.00214824147452983
24.4804842993617 0.0219203364884767
24.500958237797 0.0209683832862961
24.5214321762323 0.0331465485346543
24.5419061146677 -0.00925350109978108
24.562380053103 -0.00857551561701038
24.5828539915383 -0.0442465783503675
24.6033279299736 0.0477958107001483
24.6238018684089 -0.0254170984654636
24.6442758068442 0.0316876108194639
24.6647497452796 0.0185891052215971
24.6852236837149 -0.0438792819257302
24.7056976221502 -0.0554571339558514
24.7261715605855 0.0388277133634097
24.7466454990208 0.0694197624665439
24.7671194374561 0.0962148466868833
24.7875933758914 0.0502025493577626
24.8080673143268 0.0472682871458476
24.8285412527621 0.144703726717805
24.8490151911974 0.0495401180736353
24.8694891296327 -0.031191288786662
24.889963068068 0.109540756136912
24.9104370065033 0.00038208617769463
24.9309109449387 -0.0305422986643184
24.951384883374 0.105309268277541
24.9718588218093 0.122780537003274
24.9923327602446 0.072652757512879
25.0128066986799 0.00180092980635679
25.0332806371152 0.00657922055037321
25.0537545755506 -0.0249915369217368
25.0742285139859 0.0177657407233582
25.0947024524212 0.00854897015232591
25.1151763908565 -0.0396210153014999
25.1356503292918 -0.00776445103793832
25.1561242677271 0.0658680650094954
25.1765982061625 0.104453616174135
25.1970721445978 0.0546067857893146
25.2175460830331 0.0882025738550329
25.2380200214684 0.086751397037957
25.2584939599037 -0.00964257799524543
25.278967898339 0.0203748154220907
25.2994418367743 0.111699410623299
25.3199157752097 -0.0924396257249526
25.340389713645 0.0368639563773348
25.3608636520803 -0.00429609306983858
25.3813375905156 -0.0631056306629443
25.4018115289509 0.0604857835278225
25.4222854673862 0.018821899502462
25.4427594058216 -0.0344514494056926
25.4632333442569 0.135040736803358
25.4837072826922 -0.0378057085370508
25.5041812211275 0.0628946312397454
25.5246551595628 0.0478188394670818
25.5451290979981 0.00290441614495669
25.5656030364335 0.0987242779400372
25.5860769748688 -0.0475340751476756
25.6065509133041 0.0367856068818175
25.6270248517394 0.0600166573618492
25.6474987901747 0.140648659625753
25.66797272861 0.066442030340198
25.6884466670454 -0.027186563828152
25.7089206054807 -0.0386746228792964
25.729394543916 -0.0344283968132347
25.7498684823513 0.0675833643700331
25.7703424207866 0.0212669106705065
25.7908163592219 -0.00801317457848018
25.8112902976573 0.0604722752897383
25.8317642360926 -0.0102559063915035
25.8522381745279 -0.0867444681625519
25.8727121129632 0.0071213373177675
25.8931860513985 0.075054761248626
25.9136599898338 -0.0105483630366424
25.9341339282691 -0.0804172022047048
25.9546078667045 0.00346907707777189
25.9750818051398 0.0588188081441212
25.9955557435751 0.0140174076610096
26.0160296820104 0.0122940422951041
26.0365036204457 0.160419545379738
26.056977558881 0.0755814169149108
26.0774514973164 0.0989254902339565
26.0979254357517 0.0038892653368748
26.118399374187 0.0534935755569987
26.1388733126223 0.0628425875609952
26.1593472510576 0.112665468015531
26.1798211894929 0.120930966920606
26.2002951279283 0.0290453342762211
26.2207690663636 0.0245085700823749
26.2412430047989 0.165914424339067
26.2617169432342 0.00534623037963373
26.2821908816695 0.133949821537405
26.3026648201048 0.0465168644790495
26.3231387585402 0.00216194253789963
26.3436126969755 0.0386454723806225
26.3640866354108 0.0257591206738843
26.3845605738461 0.0299091374176858
26.4050345122814 0.0745330226120264
26.4255084507167 0.111453692923573
26.4459823891521 0.117233648352325
26.4664563275874 0.0449978888982836
26.4869302660227 0.220267247894781
26.507404204458 0.0297604753418179
26.5278781428933 0.0333734045727275
26.5483520813286 -0.0306127144124904
26.5688260197639 0.122958368386165
26.5892999581993 0.126899152968691
26.6097738966346 0.0658450560017576
26.6302478350699 0.0752127441520305
26.6507217735052 -0.0259873659138244
26.6711957119405 0.13984889247086
26.6916696503758 0.0701173526394169
26.7121435888112 0.0070055145918463
26.7326175272465 0.0104092116614817
26.7530914656818 -0.0446715561516764
26.7735654041171 -0.0178409223850865
26.7940393425524 0.0924323298320434
26.8145132809877 0.0179190338330449
26.8349872194231 0.062004606284587
26.8554611578584 0.0736473805200007
26.8759350962937 0.0268056898726209
26.896409034729 -0.0108121323242202
26.9168829731643 0.0883980805961452
26.9373569115996 0.0470925786337163
26.957830850035 0.0631880284551603
26.9783047884703 0.123663596727143
26.9987787269056 0.113935950116332
27.0192526653409 0.00535925528939363
27.0397266037762 -0.0523269044203389
27.0602005422115 -0.0314754793509375
27.0806744806468 0.0386089490249397
27.1011484190822 0.0645318291846896
27.1216223575175 -0.0526651722050209
27.1420962959528 0.0489971115224742
27.1625702343881 0.0882686803671754
27.1830441728234 0.125045367662416
27.2035181112587 0.0486500900748623
27.2239920496941 -0.0810213190621519
27.2444659881294 0.0224894735847061
27.2649399265647 0.0258491346821037
27.285413865 0.0397347475633738
27.3058878034353 0.0719588122285165
27.3263617418706 0.0743442453441983
27.346835680306 0.131526463577087
27.3673096187413 0.0911617169271802
27.3877835571766 0.0535104220611467
27.4082574956119 0.0680517456456524
27.4287314340472 0.091816937680698
27.4492053724825 0.0362643314996154
27.4696793109179 0.0654564271024052
27.4901532493532 0.00751822448906822
27.5106271877885 -0.0542169430070628
27.5311011262238 0.0560321746140114
27.5515750646591 0.0778489106856256
27.5720490030944 -0.0681938181255546
27.5925229415298 -0.0201168451528622
27.6129968799651 0.0680491043771261
27.6334708184004 0.212313922357654
27.6539447568357 0.00382344212205445
27.674418695271 0.0740880803369935
27.6948926337063 -0.00918382966419387
27.7153665721416 0.0977577121184907
27.735840510577 0.00298562235171466
27.7563144490123 0.0502499010354781
27.7767883874476 0.00387346483644711
27.7972623258829 0.0617729804212891
27.8177362643182 -0.0247494688766628
27.8382102027535 0.0568061169425904
27.8586841411889 0.0460230712123837
27.8791580796242 0.0692034772660492
27.8996320180595 0.00525358510358716
27.9201059564948 0.0195379780583312
27.9405798949301 -0.0246620938697187
27.9610538333654 -0.00104454734722944
27.9815277718008 0.0643489509591324
28.0020017102361 0.124643401049367
28.0224756486714 -0.0219841137431923
28.0429495871067 -0.0148565100852127
28.063423525542 0.020238581978742
28.0838974639773 0.0241929591599028
28.1043714024127 0.0751316214582693
28.124845340848 0.0428462355405083
28.1453192792833 0.0341076347399534
28.1657932177186 0.102301235723272
28.1862671561539 0.115916621823796
28.2067410945892 0.0905787930415246
28.2272150330245 0.0145689993764605
28.2476889714599 0.049345574161935
28.2681629098952 0.0686064340646161
28.2886368483305 0.0332890790845028
28.3091107867658 -0.00452315744507141
28.3295847252011 0.0189718078092269
28.3500586636364 0.00481564151406482
28.3705326020718 0.0910291770027756
28.3910065405071 -0.0192625857246416
28.4114804789424 0.0320132699984811
28.4319544173777 0.0235025775054754
28.452428355813 -0.0148467465369898
28.4729022942483 0.0627986312044166
28.4933762326837 -0.0222071226036374
28.513850171119 0.0621672420388482
28.5343241095543 0.0659217251318724
28.5547980479896 0.0645771600087697
28.5752719864249 0.052925213336206
28.5957459248602 0.0804450517808484
28.6162198632956 -0.0520820746573029
28.6366938017309 0.0550834173550845
28.6571677401662 0.0386602778180112
28.6776416786015 -0.0180181599351891
28.6981156170368 0.00744393742881581
28.7185895554721 -0.0164638467566393
28.7390634939075 0.00661265417511116
28.7595374323428 0.00245469022406782
28.7800113707781 0.0583018447235637
28.8004853092134 -0.0406896323264013
28.8209592476487 0.0388135924075063
28.841433186084 0.0416031855919532
28.8619071245193 -0.025810436106394
28.8823810629547 0.0331873106457983
28.90285500139 0.0115651758485298
28.9233289398253 0.0720835761684671
28.9438028782606 0.0168258449389437
28.9642768166959 -0.0500413511733739
28.9847507551312 -0.0294570330552111
29.0052246935666 0.0993094868468244
29.0256986320019 0.0432894585327324
29.0461725704372 -0.0295483679974871
29.0666465088725 0.100848090589499
29.0871204473078 0.0685934176270248
29.1075943857431 0.105458446448423
29.1280683241785 0.0239431770536942
29.1485422626138 0.0649330261095043
29.1690162010491 0.0370217436158536
29.1894901394844 0.040469746239409
29.2099640779197 0.131266617313504
29.230438016355 0.0203498568381377
29.2509119547904 -0.0318638685200227
29.2713858932257 -0.00323914209430996
29.291859831661 0.0119476936309011
29.3123337700963 0.0910458978066513
29.3328077085316 -0.0198507795670591
29.3532816469669 0.0347264115097704
29.3737555854023 -0.0642329456295282
29.3942295238376 0.0257190656817127
29.4147034622729 -0.080834221223174
29.4351774007082 0.0796488603224786
29.4556513391435 0.0566474769853371
29.4761252775788 -0.0183279545679314
29.4965992160141 -0.0385066010039943
29.5170731544495 0.0494969543438156
29.5375470928848 0.0685993781421642
29.5580210313201 0.0227069203910529
29.5784949697554 0.0511424977571471
29.5989689081907 0.0471352769071139
29.619442846626 -0.01405432549238
29.6399167850614 0.0290320238919986
29.6603907234967 -0.0306369249397496
29.680864661932 -0.00556117198762592
29.7013386003673 0.00681929823934175
29.7218125388026 0.0101944702501824
29.7422864772379 0.017585177378229
29.7627604156733 0.0172726696234811
29.7832343541086 0.0170694469859397
29.8037082925439 0.00786092613227056
29.8241822309792 -0.0572278929375258
29.8446561694145 0.0119071564432168
29.8651301078498 -0.0672860090588344
29.8856040462852 0.0567551105563201
29.9060779847205 0.0207492652886807
29.9265519231558 0.0291235384715805
29.9470258615911 -0.0287991532283136
29.9674998000264 0.0448978568556648
29.9879737384617 0.0627145687235159
30.008447676897 0.0728280657085727
30.0289216153324 0.0856550144775024
30.0493955537677 -0.013387918303029
30.069869492203 0.0647617673669791
30.0903434306383 0.0362499048208598
30.1108173690736 0.0026389940586131
30.1312913075089 -0.0334667982530943
30.1517652459443 -0.0376191319885661
30.1722391843796 0.0319950008870834
30.1927131228149 0.00145800221327202
30.2131870612502 -0.0107405446766668
30.2336609996855 0.0513889435506005
30.2541349381208 -0.0647576997715929
30.2746088765562 0.0184236920234194
30.2950828149915 0.0248914522689711
30.3155567534268 0.103083080965061
30.3360306918621 -0.0555951718883078
30.3565046302974 0.0436483603755287
30.3769785687327 0.0310220110899038
30.3974525071681 0.0862132802548185
30.4179264456034 -0.0264549154630607
30.4384003840387 -0.0543784093970674
30.458874322474 0.0441094651194649
30.4793482609093 0.0138003747532029
30.4998221993446 0.0656318195041478
30.52029613778 0.00689546603896445
30.5407700762153 -0.000950352309012508
30.5612440146506 -0.0607702188731169
30.5817179530859 0.0305608663466511
30.6021918915212 0.0686158200169584
30.6226658299565 0.0195404754711385
30.6431397683918 -0.0164047506241423
30.6636137068272 0.011561391731116
30.6840876452625 -0.0541131807964195
30.7045615836978 0.0235506984599177
30.7250355221331 0.0896051128334603
30.7455094605684 -0.0161061876757906
30.7659833990037 -0.0872351702642362
30.7864573374391 0.0130254913176136
30.8069312758744 -0.0298337286499972
30.8274052143097 0.00423925316626451
30.847879152745 -0.00715139656693426
30.8683530911803 0.103963072150407
30.8888270296156 -0.0582506740150478
30.909300968051 0.0296448649367046
30.9297749064863 0.0317121890056627
30.9502488449216 0.0924825481918267
30.9707227833569 0.0101330258285301
30.9911967217922 0.0372677885824397
31.0116706602275 0.0436785031202214
31.0321445986629 0.0554068361085426
31.0526185370982 0.00995278754740314
31.0730924755335 0.0388267741034695
31.0935664139688 -0.00771078755659192
31.1140403524041 -0.0228890640994467
31.1345142908394 -0.0119163888584292
31.1549882292748 0.12286348816646
31.1754621677101 0.0429089003085568
31.1959361061454 -0.0343322357654745
31.2164100445807 -0.00729742005563327
31.236883983016 -0.0484804507229071
31.2573579214513 -0.0381566224399468
31.2778318598866 0.0256619076268861
31.298305798322 0.0596418061442584
31.3187797367573 0.0338351564455034
31.3392536751926 0.0823565418639541
31.3597276136279 0.0828101290662776
31.3802015520632 0.0325917513858069
31.4006754904985 -0.029236091177458
31.4211494289339 -0.0154338152901834
31.4416233673692 -0.00022017095236965
31.4620973058045 0.0138006751693167
31.4825712442398 0.0800141397415425
31.5030451826751 -0.0619964439023594
31.5235191211104 0.115112674237612
31.5439930595458 0.00196649416145497
31.5644669979811 -0.00429956746416221
31.5849409364164 -0.0182688439725736
31.6054148748517 -0.0458645109328163
31.625888813287 0.0243053572241471
31.6463627517223 -0.0265092395016837
31.6668366901577 0.0582021155563585
31.687310628593 -0.0952584942683941
31.7077845670283 -0.00512023564260716
31.7282585054636 -0.0294560252329472
31.7487324438989 0.0179320536272517
31.7692063823342 0.0498044176046566
31.7896803207695 -0.0601410166340661
31.8101542592049 -0.00200841575558273
31.8306281976402 0.0835772202401069
31.8511021360755 0.0625013080196684
31.8715760745108 0.0207013475831031
31.8920500129461 0.085781505597077
31.9125239513814 -0.00397696793841019
31.9329978898168 -0.00638657302335762
31.9534718282521 0.104594357008901
31.9739457666874 0.0555283221583644
31.9944197051227 0.0938111557583682
32.014893643558 0.117880357808911
32.0353675819933 0.0444025949766597
32.0558415204287 -0.0458929660717192
32.076315458864 -0.0227979920028916
32.0967893972993 -0.00212712785437865
32.1172633357346 0.0208598286826651
32.1377372741699 -0.0224501796630854
32.1582112126052 0.0411199304417039
32.1786851510406 0.0422993256636991
32.1991590894759 0.00322342266956634
32.2196330279112 -0.0578786118740268
32.2401069663465 -0.00186881880700231
32.2605809047818 0.0776877593772279
32.2810548432171 0.0271452893453306
32.3015287816525 0.0196808544306396
32.3220027200878 0.0162319546331542
32.3424766585231 0.045444423286208
32.3629505969584 0.0018495103898012
32.3834245353937 0.0885722159439334
32.403898473829 -0.0225124600513946
32.4243724122643 0.0305746490704831
32.4448463506997 0.00564604330956693
32.465320289135 -0.0920899440008104
32.4857942275703 0.0433562704726852
32.5062681660056 -0.0124944799366134
32.5267421044409 -0.00573594522870601
32.5472160428762 0.0701422912630739
32.5676899813116 0.0875360628720594
32.5881639197469 0.0151953695982516
32.6086378581822 0.0106722947749831
32.6291117966175 -0.0171789949310799
32.6495857350528 0.136068583813397
32.6700596734881 -0.0100537189915883
32.6905336119235 0.00929784665396631
32.7110075503588 0.0144357807500609
32.7314814887941 0.00145383329669392
32.7519554272294 0.0172270042938667
32.7724293656647 -0.0319947062584212
32.7929033041 0.00352828497316348
32.8133772425354 -0.0207352720113797
32.8338511809707 0.0306312894546168
32.854325119406 0.170648802704486
32.8747990578413 -0.0407868989284395
32.8952729962766 -0.0463841487774921
32.9157469347119 -0.0366593389031469
32.9362208731472 0.0721330894217371
32.9566948115826 0.0703577195304935
32.9771687500179 -0.0120375319102105
32.9976426884532 -0.00708391490037527
33.0181166268885 0.0132217636329359
33.0385905653238 -0.00282160604988019
33.0590645037591 0.0645776427178426
33.0795384421945 0.035732009936105
33.1000123806298 0.0395477456049067
33.1204863190651 0.0239415163909141
33.1409602575004 0.0657362389607942
33.1614341959357 -0.0355889200187864
33.181908134371 0.0988722894521724
33.2023820728064 0.0876094507070029
33.2228560112417 0.073851730412374
33.243329949677 -0.0413592047650496
33.2638038881123 0.0727058118413995
33.2842778265476 -0.013640719768279
33.3047517649829 0.0446532837392485
33.3252257034183 0.0457649056973157
33.3456996418536 0.00662122943925488
33.3661735802889 0.0860764216317329
33.3866475187242 0.0354325656080848
33.4071214571595 0.0226584113683088
33.4275953955948 -0.00172520775426146
33.4480693340302 -0.0351141250929592
33.4685432724655 0.000998302583874171
33.4890172109008 0.02029293204458
33.5094911493361 0.120426013289158
33.5299650877714 0.0409808796509427
33.5504390262067 0.0202387811299327
33.570912964642 0.00611638439279574
33.5913869030774 0.0246553561061977
33.6118608415127 0.079761946270139
33.632334779948 0.0685715715512865
33.6528087183833 0.062698815282973
33.6732826568186 0.101206177465199
33.6937565952539 -0.0333542585687024
33.7142305336893 0.0808925071812691
33.7347044721246 0.061133974715112
33.7551784105599 -0.0249215226338384
33.7756523489952 0.150851015134417
33.7961262874305 -0.0274338286467877
33.8166002258658 -0.0233177206441206
33.8370741643012 0.0368972558090861
33.8575481027365 0.0451381840461655
33.8780220411718 -0.0493761859328828
33.8984959796071 -0.0305000207947249
33.9189699180424 0.0861416794606384
33.9394438564777 0.0752884981665416
33.9599177949131 0.0150654353229839
33.9803917333484 0.0278683242632987
34.0008656717837 -0.0178132516791805
34.021339610219 -0.0113022091711203
34.0418135486543 0.0643285351208125
34.0622874870896 -0.0148793521367155
34.082761425525 0.0844074623896283
34.1032353639603 -0.00109227130015403
34.1237093023956 0.00987144679393585
34.1441832408309 0.0313611166718983
34.1646571792662 0.016501738333733
34.1851311177015 0.0551370617794405
34.2056050561368 0.145965003675687
34.2260789945722 0.00773556402247333
34.2465529330075 -0.00798875718020131
34.2670268714428 0.0675420400676634
34.2875008098781 0.0364112890994004
34.3079747483134 0.0327335732483437
34.3284486867487 -0.00468902415217406
34.3489226251841 -0.00684608643548579
34.3693965636194 -0.0246387592893795
34.3898705020547 0.0214799363072655
34.41034444049 -0.0390629163122165
34.4308183789253 -0.0304860671478259
34.4512923173606 0.0862729838004375
34.471766255796 0.0794434031992397
34.4922401942313 0.0128272743819144
34.5127141326666 -0.0458670693182045
34.5331880711019 -0.00419171123445116
34.5536620095372 -0.00277165136682507
34.5741359479725 0.0274035269513408
34.5946098864079 0.0160213237200451
34.6150838248432 0.0971963222726222
34.6355577632785 -0.00511314405759459
34.6560317017138 0.0658637580627279
34.6765056401491 -0.0193000546997437
34.6969795785844 0.0349683343216575
34.7174535170197 0.0333564251269312
34.7379274554551 0.0487808843827438
34.7584013938904 0.057804212089096
34.7788753323257 -0.00988609175401274
34.799349270761 0.0540433061867511
34.8198232091963 0.0425611559113878
34.8402971476316 0.0324903740865636
34.860771086067 0.0824247107122787
34.8812450245023 0.0478329157885329
34.9017189629376 -0.00878501068467313
34.9221929013729 0.0180396812926598
34.9426668398082 0.0905465750538654
34.9631407782435 -0.0477747460677236
34.9836147166789 -0.0440596987387725
35.0040886551142 0.00994817034728027
35.0245625935495 0.083596574550539
35.0450365319848 0.110479263871004
35.0655104704201 -0.00445584502465875
35.0859844088554 0.0421766645302177
35.1064583472908 0.0706892925356338
35.1269322857261 0.0862903723249222
35.1474062241614 -0.03732217943525
35.1678801625967 0.0631328872551171
35.188354101032 0.118124322396023
35.2088280394673 -0.0312020406791979
35.2293019779027 0.0344246313627869
35.249775916338 0.0142230885219779
35.2702498547733 0.0110579141317076
35.2907237932086 0.0027936915253102
35.3111977316439 0.0623470873694523
35.3316716700792 0.0178431016641335
35.3521456085145 0.0242296510760207
35.3726195469499 0.11145465227178
35.3930934853852 0.0438410219180792
35.4135674238205 -0.0497049899850823
35.4340413622558 -0.00512088343770526
35.4545153006911 0.0864475082268787
35.4749892391264 0.0843751850086682
35.4954631775618 0.0420475635743296
35.5159371159971 0.0375896439238645
35.5364110544324 -0.0227485739427284
35.5568849928677 -0.037502876749108
35.577358931303 0.0533208555617188
35.5978328697383 -0.000277377010248887
35.6183068081737 0.0191503422016558
35.638780746609 0.00353109653076706
35.6592546850443 0.0179690526437511
35.6797286234796 0.0299121272072737
35.7002025619149 -0.0582959297786642
35.7206765003502 0.0371990483526033
35.7411504387856 -0.0195404383989223
35.7616243772209 0.0865897766334247
35.7820983156562 0.0209542767829767
35.8025722540915 0.0387613953830687
35.8230461925268 0.0397507157670329
35.8435201309621 0.0135055712682035
35.8639940693974 -0.066015704780087
35.8844680078328 0.0056139709554949
35.9049419462681 0.0773529318082829
35.9254158847034 -0.0265800722217224
35.9458898231387 -0.0275392078011891
35.966363761574 0.06926719173655
35.9868377000093 0.000818293058161921
36.0073116384447 -0.0297609038363534
36.02778557688 0.00357126771967017
36.0482595153153 0.0786793910595664
36.0687334537506 0.0458238828500019
36.0892073921859 0.14849432642431
36.1096813306212 0.101534471782491
36.1301552690566 0.0572880689245443
36.1506292074919 0.0756509511838036
36.1711031459272 0.0589668685602691
36.1915770843625 -0.0188058456127262
36.2120510227978 -0.00402135800184888
36.2325249612331 -0.0132205371074532
36.2529988996685 0.00503331890414886
36.2734728381038 -0.00264520663371023
36.2939467765391 0.0718168029456372
36.3144207149744 0.0917005976421905
36.3348946534097 0.0570061774559493
36.355368591845 0.0432543757202473
36.3758425302804 0.0543514424350853
36.3963164687157 0.0694640442671288
36.416790407151 0.0534359312163779
36.4372643455863 0.0739754366161669
36.4577382840216 0.017801310466495
36.4782122224569 0.0320489694340287
36.4986861608922 0.0229684135187685
36.5191600993276 -0.0784507739459519
36.5396340377629 0.0559164070398661
36.5601079761982 -0.0374717101904427
36.5805819146335 0.00987445769645393
36.6010558530688 0.0742569940338901
36.6215297915041 -0.0513553511781342
36.6420037299395 -0.0114938279396197
36.6624776683748 -0.023451310155825
36.6829516068101 0.0285025760785088
36.7034255452454 0.0974928307633816
36.7238994836807 0.0676340372321274
36.744373422116 0.106894945484746
36.7648473605514 0.0394943055212363
36.7853212989867 0.0242862840082665
36.805795237422 0.0352292142791693
36.8262691758573 0.0059168463339445
36.8467431142926 0.0353075135059257
36.8672170527279 0.00621371579511292
36.8876909911633 0.0800937865348398
36.9081649295986 0.0811664757251053
36.9286388680339 0.0289630333659101
36.9491128064692 -0.0556832072094122
36.9695867449045 0.0772277539991382
36.9900606833398 0.0930605003248936
37.0105346217752 0.0725441984345229
37.0310085602105 0.158908014994691
37.0514824986458 0.0331415333387314
37.0719564370811 0.0754530867999778
37.0924303755164 0.154332258711764
37.1129043139517 0.131758215740755
37.133378252387 0.13533512455362
37.1538521908224 0.0621984018170234
37.1743261292577 -0.0108290358023668
37.194800067693 0.0920340616954485
37.2152740061283 0.0752147776438033
37.2357479445636 0.0220464453760307
37.2562218829989 -0.0427313517745362
37.2766958214343 -0.0595880503458205
37.2971697598696 0.0838207862001017
37.3176436983049 0.0111930745298961
37.3381176367402 0.0675808979768962
37.3585915751755 0.0615780065411028
37.3790655136108 0.0387573168891816
37.3995394520462 0.0577125790211336
37.4200133904815 0.0598500429369576
37.4404873289168 0.0425655419699874
37.4609612673521 0.0449215761202235
37.4814352057874 0.00572022872099884
37.5019091442227 0.0525656664389798
37.5223830826581 0.0213953892741671
37.5428570210934 -0.03310310277344
37.5633309595287 0.0244868569628261
37.583804897964 -0.0154701481837025
37.6042788363993 0.0527550484536418
37.6247527748346 -0.0234417197918079
37.6452267132699 -0.0174979529200521
37.6657006517053 0.0302217657355765
37.6861745901406 -0.0235117304915888
37.7066485285759 0.064791141731785
37.7271224670112 0.0529428824056981
37.7475964054465 0.077662241530151
37.7680703438818 0.0438971357718092
37.7885442823172 0.0753454817973401
37.8090182207525 -0.0571593870599228
37.8294921591878 0.085184612533353
37.8499660976231 0.0127941472438352
37.8704400360584 -0.0295391162618101
37.8909139744937 0.0688619053497503
37.9113879129291 -0.0383569545881497
37.9318618513644 0.0407313872578228
37.9523357897997 0.0261790142210016
37.972809728235 -0.00258699036528077
37.9932836666703 0.020839623498976
38.0137576051056 -0.0480723941862277
38.034231543541 0.034166539912441
38.0547054819763 0.0162543424616494
38.0751794204116 -0.0197777365386036
38.0956533588469 0.0653932195783498
38.1161272972822 0.00353804414584256
38.1366012357175 0.0199171538305411
38.1570751741529 -0.00786528470088821
38.1775491125882 -0.0617612162818767
38.1980230510235 0.0745563039210076
38.2184969894588 0.0911914425744308
38.2389709278941 0.0246025330117266
38.2594448663294 -0.0262520914337715
38.2799188047647 0.0297734025712692
38.3003927432001 0.0247102650268497
38.3208666816354 0.0210584959329691
38.3413406200707 0.0565785119562948
38.361814558506 0.0518432297634926
38.3822884969413 0.0276859826878967
38.4027624353766 0.0830651040628402
38.423236373812 -0.00207148944501034
38.4437103122473 -0.0232967145023222
38.4641842506826 -0.0572839333390205
38.4846581891179 0.0286297996081537
38.5051321275532 -0.0350867656607992
38.5256060659885 0.0666705375207871
38.5460800044239 0.051349625819579
38.5665539428592 0.0192109159022441
38.5870278812945 0.00671274110211483
38.6075018197298 0.0268759347525246
38.6279757581651 -0.0570182531465262
38.6484496966004 -0.00799065592837112
38.6689236350358 0.0162200432488913
38.6893975734711 0.0158004442100261
38.7098715119064 0.0193963802883669
38.7303454503417 -0.0315858985160867
38.750819388777 0.00217652446333242
38.7712933272123 0.0568815658932908
38.7917672656477 -0.0692936908928781
38.812241204083 0.0598486707714925
38.8327151425183 0.0250378175530691
38.8531890809536 0.0372112494518513
38.8736630193889 0.0208481331345063
38.8941369578242 0.00199013526770015
38.9146108962595 -0.0480085774818994
38.9350848346949 0.0127790782190393
38.9555587731302 0.00336351903718518
38.9760327115655 0.0318176616392027
38.9965066500008 0.0734019226917597
39.0169805884361 -0.041154531138477
39.0374545268714 0.0175753834818255
39.0579284653068 0.0139145832193335
39.0784024037421 -0.0300015152592854
39.0988763421774 -0.0488231467759086
39.1193502806127 0.0292597595935709
39.139824219048 0.0123998677469232
39.1602981574833 0.0659617610174813
39.1807720959187 -0.0509399772614215
39.201246034354 0.00414256957688207
39.2217199727893 0.081469818199058
39.2421939112246 -0.0520311480615603
39.2626678496599 0.000775087461694018
39.2831417880952 -0.0244343918978453
39.3036157265306 0.0897883305264872
39.3240896649659 -0.0159317452653068
39.3445636034012 0.00606163072677152
39.3650375418365 -0.0343357081639445
39.3855114802718 0.0360533213958791
39.4059854187071 -0.0523025305937585
39.4264593571424 -0.0324761807995231
39.4469332955778 0.0216072413273994
39.4674072340131 0.118768698571528
39.4878811724484 0.0220290242661955
39.5083551108837 0.0191486350780695
39.528829049319 -0.0135703856595177
39.5493029877543 -0.0304055668431581
39.5697769261897 0.0231810370904074
39.590250864625 -0.0702584905254875
39.6107248030603 0.0187029336424897
39.6311987414956 -0.0263409404056601
39.6516726799309 0.0576307206633957
39.6721466183662 0.0596804168496577
39.6926205568016 0.0735581481531253
39.7130944952369 -0.0114131687595345
39.7335684336722 0.0144018827783452
39.7540423721075 -0.0404029472332361
39.7745163105428 0.0585473412057222
39.7949902489781 0.0833881647618861
39.8154641874135 -0.0492138098980766
39.8359381258488 0.0487622505591658
39.8564120642841 -0.0406524038663856
39.8768860027194 0.0158755601586023
39.8973599411547 0.0269398926341292
39.91783387959 -0.0335010731064711
39.9383078180254 -0.0427098611436927
39.9587817564607 -0.042790824805091
39.979255694896 0.00198744503885147
39.9997296333313 0
