'Id: "" Comment: "" Operator: "lab manager" Anode: "Cu" Scantype: "coupled twotheta/theta" TimePerStep: "768" 
2.00009989738464 0
2.02057383581996 0.0290849011950351
2.04104777425528 0.0140433765890951
2.06152171269059 0.139771259515512
2.08199565112591 0.0612164666409543
2.10246958956122 0.12212899796542
2.12294352799654 0.0243317701555786
2.14341746643186 0.0725122832114269
2.16389140486717 -0.00676696286703389
2.18436534330249 -0.0780893014131366
2.2048392817378 -0.0487909104859563
2.22531322017312 -0.0615632881551022
2.24578715860844 0.0117462417081117
2.26626109704375 0.0891064291036818
2.28673503547907 0.0298922740316098
2.30720897391438 -0.0630316401747711
2.3276829123497 -0.0360194801821279
2.34815685078502 0.00806417067620721
2.36863078922033 -0.0297390209330997
2.38910472765565 0.0836438616566167
2.40957866609097 -0.0437142648879742
2.43005260452628 0.0308949327664571
2.4505265429616 0.0926277046199144
2.47100048139691 0.0789840506723958
2.49147441983223 -0.0725360290760988
2.51194835826755 0.0404112153744315
2.53242229670286 -0.0105596326426801
2.55289623513818 0.00111392687256538
2.57337017357349 -0.0782139394131642
2.59384411200881 -0.0198168599770145
2.61431805044413 -0.0534164106165268
2.63479198887944 0.100628446276319
2.65526592731476 -0.151432289298477
2.67573986575007 -0.0140257006742489
2.69621380418539 0.010244045482336
2.71668774262071 -0.0890397174953872
2.73716168105602 -0.00718948960741943
2.75763561949134 -0.154361520853761
2.77810955792665 0.0189233554322563
2.79858349636197 -0.0862931940827028
2.81905743479729 0.0664471639346961
2.8395313732326 0.168550679484452
2.86000531166792 0.0077777692332341
2.88047925010324 0.0138159331810391
2.90095318853855 0.0134880879945353
2.92142712697387 -0.153362016326277
2.94190106540918 -0.0144635135875308
2.9623750038445 0.0904957882782266
2.98284894227982 -0.124713002323658
3.00332288071513 -0.0689440520598512
3.02379681915045 0.0130109724029794
3.04427075758576 0.0469333210648342
3.06474469602108 -0.08957283940762
3.0852186344564 -0.0467797089913358
3.10569257289171 0.0382806246668114
3.12616651132703 0.0557770325239816
3.14664044976234 0.0460740979135109
3.16711438819766 -0.00254692916460365
3.18758832663298 0.100018117956307
3.20806226506829 -0.0485745107237571
3.22853620350361 0.0334460181285352
3.24901014193892 0.123423454513186
3.26948408037424 -0.156246368236473
3.28995801880956 0.0915719665462269
3.31043195724487 -0.0510902911387157
3.33090589568019 0.0290481087086986
3.35137983411551 0.0871954994218056
3.37185377255082 -0.023783535666064
3.39232771098614 0.0398610034450909
3.41280164942145 -0.0578083832447297
3.43327558785677 0.0738333042644741
3.45374952629209 -0.0170368506939647
3.4742234647274 0.0224457352132879
3.49469740316272 0.00478106198623204
3.51517134159803 0.101844129624867
3.53564528003335 -0.0574588118708074
3.55611921846867 0.068538904165876
3.57659315690398 -0.0344856389317481
3.5970670953393 0.104821725502984
3.61754103377461 0.00599224747007393
3.63801497220993 0.205484260302855
3.65848891064525 0.0795998473346608
3.67896284908056 0.199953591898825
3.69943678751588 0.267066327328679
3.71991072595119 0.0895318036242255
3.74038466438651 0.132193770785462
3.76085860282183 0.322135562145724
3.78133254125714 0.313003011038342
3.80180647969246 0.401671117463319
3.82228041812778 0.302983631420654
3.84275435656309 0.434909302910347
3.86322829499841 0.518802298599062
3.88370223343372 0.582006368486801
3.90417617186904 0.759938179240233
3.92465011030436 0.906764397526029
3.94512404873967 0.85712044001084
3.96559798717499 0.992516723361346
3.9860719256103 1.13717199757755
4.00654586404562 1.17129459599276
4.02701980248094 1.69384285194034
4.04749374091625 1.90794176542028
4.06796767935157 2.22114341976591
4.08844161778688 2.70115614831056
4.1089155562222 3.18521953438757
4.12938949465752 3.69807316133027
4.14986343309283 3.98450869580532
4.17033737152815 5.12785947114607
4.19081130996346 6.52526090401919
4.21128524839878 8.01916091109132
4.2317591868341 10.2697157423624
4.25223312526941 11.0308316478327
4.27270706370473 8.3545919608352
4.29318100214005 4.97797584803675
4.31365494057536 2.53770205943735
4.33412887901068 1.34887476170362
4.35460281744599 0.62373353816892
4.37507675588131 0.462538805499914
4.39555069431663 0.412165563696603
4.41602463275194 0.407509646092316
4.43649857118726 0.134768969353713
4.45697250962257 0.131703950147471
4.47744644805789 0.204304171806921
4.49792038649321 0.101267550998728
4.51839432492852 0.226239921056226
4.53886826336384 0.256304615312749
4.55934220179915 0.0703678837682963
4.57981614023447 0.0994193097562009
4.60029007866979 0.109083893276464
4.6207640171051 0.154049134329083
4.64123795554042 -0.0143828837526038
4.66171189397573 0.0556107556980645
4.68218583241105 0.0606446360144255
4.70265977084637 0.0814479238631426
4.72313370928168 -0.0147918807557808
4.743607647717 -0.0288560278423478
4.76408158615232 -0.0414312672371193
4.78455552458763 0.107596234233798
4.80502946302295 0.0341118932370748
4.82550340145826 -0.00407179022729054
4.84597733989358 0.0737743505073684
4.8664512783289 0.0306711487743841
4.88692521676421 0.0723477712404252
4.90739915519953 -0.0290603654278436
4.92787309363484 0.0480613221029135
4.94834703207016 -0.00618299950064016
4.96882097050548 0.0425816697614986
4.98929490894079 -0.0816863367773381
5.00976884737611 0.12101298088285
5.03024278581142 0.0478150394087277
5.05071672424674 -0.0369572445330357
5.07119066268206 0.154456545724225
5.09166460111737 0.105129326847176
5.11213853955269 0.141884015502484
5.132612477988 0.073314361690153
5.15308641642332 -0.0380796345898226
5.17356035485864 0.00431660999589389
5.19403429329395 0.0755030954473005
5.21450823172927 0.0491777384310654
5.23498217016459 0.0802884556138552
5.2554561085999 0.0438352469956692
5.27593004703522 -0.0237235540901605
5.29640398547053 0.0898516356897044
5.31687792390585 0.178831649668586
5.33735186234117 0.0127477378465004
5.35782580077648 0.0251936502234367
5.3782997392118 0.00653397013273038
5.39877367764711 0.123435364241045
5.41924761608243 0.0477728325483888
5.43972155451775 0.0764213750547569
5.46019549295306 0.217193491760149
5.48066943138838 0.205766265997896
5.50114336982369 0.263493864434667
5.52161730825901 0.256261703737133
5.54209124669433 0.314278117238623
5.56256518512964 0.671918104939138
5.58303912356496 0.714598333505347
5.60351306200027 0.63763130293724
5.62398700043559 0.834246179901488
5.64446093887091 1.0388179643981
5.66493487730622 1.27478415642707
5.68540881574154 1.6241760059884
5.70588275417686 1.88907684641541
5.72635669261217 2.17625751104146
5.74683063104749 2.61983258319986
5.7673045694828 3.52448956289062
5.78777850791812 3.98007220011373
5.80825244635344 4.89022632820254
5.82872638478875 6.42292069715703
5.84920032322407 8.04039489031056
5.86967426165938 10.2061905743298
5.8901482000947 12.8369744158813
5.91062213853002 12.1866526649652
5.93109607696533 9.45574615491491
5.95157001540065 5.18592155239687
5.97204395383596 2.3810851074112
5.99251789227128 1.17014306995789
6.0129918307066 0.843460023370283
6.03346576914191 0.61197346764835
6.05393970757723 0.620214652792122
6.07441364601254 0.689798162134907
6.09488758444786 0.680098995676727
6.11536152288318 0.787731736750902
6.13583546131849 0.586915135357431
6.15630939975381 0.554211691496314
6.17678333818913 0.403163071834232
6.19725727662444 0.356425526371165
6.21773121505976 0.285092805107132
6.23820515349507 0.234737824708783
6.25867909193039 0.444943918509458
6.27915303036571 0.354513169842498
6.29962696880102 0.248601828707893
6.32010090723634 0.541272395105642
6.34057484567165 0.558045702369085
6.36104878410697 0.327567583831543
6.38152272254229 0.353744289493036
6.4019966609776 0.283711236020222
6.42247059941292 0.0679892567464238
6.44294453784823 0.0959012683383194
6.46341847628355 0.168228520795909
6.48389241471887 -0.0704977358808161
6.50436635315418 0.183107914974823
6.5248402915895 -0.103506609970514
6.54531423002481 -0.093101727383496
6.56578816846013 0.104597987142842
6.58626210689545 0.120150442534866
6.60673604533076 0.0173577221259129
6.62720998376608 0.327469825915985
6.6476839222014 0.240590920571751
6.66815786063671 0.155158506093201
6.68863179907203 0.0516413324803464
6.70910573750734 0.0602477330665161
6.72957967594266 0.51561312451838
6.75005361437798 0.624768756835939
6.77052755281329 0.514016713352512
6.79100149124861 0.597419494068119
6.81147542968392 1.06247709898274
6.83194936811924 1.16049161142973
6.85242330655456 1.43833803140907
6.87289724498987 1.86476635892076
6.89337118342519 2.26529742729815
6.9138451218605 3.28967081987457
6.93431906029582 3.98996986998334
6.95479299873114 4.51463207762448
6.97526693716645 5.44699077613129
6.99574087560177 5.74277513217048
7.01621481403708 5.16891222907534
7.0366887524724 5.44154790017924
7.05716269090772 5.93698422881549
7.07763662934303 6.49636704831744
7.09811056777835 7.88532135868507
7.11858450621367 10.6103575765851
7.13905844464898 13.2313715353507
7.1595323830843 17.7978424016488
7.18000632151961 23.4191451754792
7.20048025995493 25.2958006901753
7.22095419839025 21.5410901957371
7.24142813682556 13.8412116088312
7.26190207526088 8.02298784612436
7.28237601369619 5.03042932428322
7.30284995213151 3.8062443766411
7.32332389056683 3.471526753198
7.34379782900214 3.14085978728726
7.36427176743746 3.05252472890888
7.38474570587277 3.01511532806285
7.40521964430809 3.05597533474918
7.42569358274341 3.07744849896788
7.44616752117872 2.74359732071893
7.46664145961404 2.32916138333567
7.48711539804935 1.94091152015144
7.50758933648467 1.15046231449956
7.52806327491999 0.912240849713371
7.5485372133553 0.748382542459553
7.56901115179062 0.571647809404739
7.58948509022594 0.313026233882299
7.60995902866125 0.523299065892214
7.63043296709657 0.313143388767814
7.65090690553188 0.355736285842438
7.6713808439672 0.496129840449426
7.69185478240252 0.463490719255439
7.71232872083783 0.419277255593806
7.73280265927315 0.334843616131198
7.75327659770846 0.0682627175342778
7.77375053614378 0.176826226469714
7.7942244745791 0.11235705960418
7.81469841301441 0.239438550271009
7.83517235144973 0.352341531803523
7.85564628988504 0.117732670868392
7.87612022832036 -0.0633463658677111
7.89659416675568 0.137229421595209
7.91706810519099 0.0775329499238219
7.93754204362631 0.0127725524514569
7.95801598206162 0.117427395844784
7.97848992049694 0.0789974801038024
7.99896385893226 -0.00225677810482117
8.01943779736757 -0.0182624621144203
8.03991173580289 0.034886678075004
8.06038567423821 0.159794809130121
8.08085961267352 -0.0185380689490721
8.10133355110884 0.277231793837427
8.12180748954415 0.165593980822949
8.14228142797947 0.0319651586741623
8.16275536641479 0.277386994057729
8.1832293048501 0.370609486973658
8.20370324328542 0.380643054088613
8.22417718172073 0.360873112069261
8.24465112015605 0.651143410915594
8.26512505859137 0.761870617294291
8.28559899702668 0.913106814538672
8.306072935462 0.738966585982088
8.32654687389731 0.765491598291189
8.34702081233263 0.270025601465976
8.36749475076795 0.261683178839792
8.38796868920326 0.145412247079299
8.40844262763858 0.315744056184496
8.42891656607389 0.112522356155385
8.44939050450921 0.0956429803252982
8.46986444294453 0.0723975953609027
8.49033838137984 0.0675257845955319
8.51081231981516 0.122694214695851
8.53128625825047 0.0933716356618624
8.55176019668579 -0.103775285839767
8.57223413512111 0.0950555335242914
8.59270807355642 0.00496826042070964
8.61318201199174 0.0426295615161514
8.63365595042706 0.0869456868106177
8.65412988886237 -0.0235416970292229
8.67460382729769 -0.19907942906807
8.695077765733 0.0734439130921093
8.71555170416832 0.0778824961179792
8.73602564260364 -0.132378263323793
8.75649958103895 0.130161634766791
8.77697351947427 0.108991773723068
8.79744745790958 0.107497570211702
8.8179213963449 -0.0579147257673059
8.83839533478022 0.117963219119377
8.85886927321553 0.0127355715384184
8.87934321165085 0.0339544148231498
8.89981715008616 0.0449009989735735
8.92029108852148 0.0364607406563549
8.9407650269568 -0.0356371934618405
8.96123896539211 0.0213155299523217
8.98171290382743 -0.0179415057678237
9.00218684226274 -0.0608462540026261
9.02266078069806 0.04873715529493
9.04313471913338 0.0269545554581765
9.06360865756869 -0.0298398868462185
9.08408259600401 0.0385100783817439
9.10455653443933 -0.0752872155246022
9.12503047287464 0.167830731434743
9.14550441130996 0.0920826692597778
9.16597834974527 -0.060343902049495
9.18645228818059 0.13893643417359
9.20692622661591 0.0974757612623647
9.22740016505122 0.00798241255016424
9.24787410348654 0.0410293047036562
9.26834804192185 0.0156268543895056
9.28882198035717 -0.0226520217256206
9.30929591879249 0.0472864263582757
9.3297698572278 0.0965359486411985
9.35024379566312 -0.0571951215435219
9.37071773409843 0.183749465804116
9.39119167253375 0.0198905440174453
9.41166561096907 -0.0097093869035349
9.43213954940438 0.10406425637451
9.4526134878397 0.0291802238515771
9.47308742627501 -0.0143094011389959
9.49356136471033 -0.0284273374202257
9.51403530314565 0.0865053838309027
9.53450924158096 0.0218950126143888
9.55498318001628 -0.0308522010697674
9.5754571184516 -0.0157466738882334
9.59593105688691 0.0724199274923267
9.61640499532223 -0.0606232302614237
9.63687893375754 0.0551759361838508
9.65735287219286 -0.0710679898385167
9.67782681062818 -0.11401040725912
9.69830074906349 0.0762644995193016
9.71877468749881 -0.11612868616992
9.73924862593412 -0.0115024643267829
9.75972256436944 -0.0387269475353039
9.78019650280476 -0.0228382732114672
9.80067044124007 0.0426739753113944
9.82114437967539 -0.036200618633387
9.8416183181107 0.00746502828752318
9.86209225654602 -0.00601658392587561
9.88256619498134 -0.00893712194024989
9.90304013341665 -0.1887965857556
9.92351407185197 0.158832107961408
9.94398801028728 -0.06500937412256
9.9644619487226 0.0237935513258295
9.98493588715792 0.0437304676399108
10.0054098255932 -0.0338444585136498
10.0258837640285 0.0280479395318126
10.0463577024639 0.224199328442967
10.0668316408992 0.255130541553146
10.0873055793345 0.551831162195683
10.1077795177698 0.590863690370577
10.1282534562051 1.04019687607782
10.1487273946404 0.610768219317438
10.1692013330758 0.270025636756072
10.1896752715111 0.137760795060398
10.2101492099464 0.0642341108970814
10.2306231483817 -0.0143564990672118
10.251097086817 -0.114439798473165
10.2715710252523 0.0144982593796688
10.2920449636877 0.134466141431527
10.312518902123 0.0267138476824106
10.3329928405583 -0.0275086218676822
10.3534667789936 -0.00215960055208448
10.3739407174289 0.0168234116292057
10.3944146558642 -0.132017918657147
10.4148885942996 -0.0167018462638926
10.4353625327349 0.044224573191042
10.4558364711702 0.0154516501783355
10.4763104096055 -0.0548435319686804
10.4967843480408 -0.00910888991667175
10.5172582864761 -0.0101048403323056
10.5377322249115 -0.0343938832155814
10.5582061633468 0.0013573147668338
10.5786801017821 -0.139830413051727
10.5991540402174 -0.006363926146709
10.6196279786527 0.00621028458122933
10.640101917088 -0.00450859715847431
10.6605758555233 -0.0071930118689026
10.6810497939587 0.0527669809530265
10.701523732394 0.204017214640645
10.7219976708293 0.226505605860625
10.7424716092646 0.305127987946294
10.7629455476999 0.40342602756432
10.7834194861352 0.650305974714705
10.8038934245706 0.702017829397448
10.8243673630059 0.830697008279214
10.8448413014412 0.839728928026673
10.8653152398765 1.09109275530649
10.8857891783118 1.12775724011866
10.9062631167471 1.09425363246319
10.9267370551825 1.01792568234008
10.9472109936178 1.07715880641599
10.9676849320531 0.984192588024262
10.9881588704884 0.964287443831558
11.0086328089237 0.902860040504549
11.029106747359 0.896264544709894
11.0495806857944 0.770021789780928
11.0700546242297 0.580121359050988
11.090528562665 0.577865335853405
11.1110025011003 0.463774553521513
11.1314764395356 0.189671928721981
11.1519503779709 0.242536628121471
11.1724243164063 0.183566568386654
11.1928982548416 0.0179700828508594
11.2133721932769 0.00225758818075761
11.2338461317122 -0.0341438322903208
11.2543200701475 0.0715262381042922
11.2747940085828 -0.0557322006354043
11.2952679470181 0.141372518157259
11.3157418854535 0.050861227815611
11.3362158238888 0.0594526783396548
11.3566897623241 0.212719786396058
11.3771637007594 0.189047968651484
11.3976376391947 0.307447641772601
11.41811157763 0.690314639092742
11.4385855160654 0.626711460611909
11.4590594545007 0.977315189663429
11.479533392936 1.13014665958065
11.5000073313713 1.40421628703022
11.5204812698066 1.81645115534548
11.5409552082419 1.99966376452644
11.5614291466773 2.16869786457309
11.5819030851126 2.63214720548542
11.6023770235479 2.90303262059678
11.6228509619832 3.27302077657384
11.6433249004185 3.35409084008325
11.6637988388538 3.10457614445835
11.6842727772892 3.11432043969915
11.7047467157245 3.0538966424723
11.7252206541598 3.2787735027778
11.7456945925951 3.66004477061566
11.7661685310304 4.24718961265256
11.7866424694657 4.81364552888847
11.807116407901 5.10029793599007
11.8275903463364 5.82459475062404
11.8480642847717 6.2573693061237
11.868538223207 6.43247576915571
11.8890121616423 6.15460163972008
11.9094861000776 6.10083025115014
11.9299600385129 5.75944285344589
11.9504339769483 4.88564777994067
11.9709079153836 4.63569503063446
11.9913818538189 4.06297002219396
12.0118557922542 3.53726442128582
12.0323297306895 2.78253656124335
12.0528036691248 2.24409894206659
12.0732776075602 1.83601406375551
12.0937515459955 1.36296942631013
12.1142254844308 0.987725446397095
12.1346994228661 0.693355040683091
12.1551733613014 0.38089987583478
12.1756472997367 0.344630785185492
12.1961212381721 0.235589435401895
12.2165951766074 0.141015409817323
12.2370691150427 0.0218462084317755
12.257543053478 -0.0437931687547487
12.2780169919133 0.0873264449244195
12.2984909303486 0.127444632802611
12.318964868784 0.441144728213161
12.3394388072193 0.452905897822735
12.3599127456546 0.499967724964668
12.3803866840899 0.57972604297229
12.4008606225252 0.308066268512271
12.4213345609605 0.207123818251276
12.4418084993958 0.205284108855973
12.4622824378312 0.117651306993027
12.4827563762665 0.00151707932910455
12.5032303147018 0.160266842530874
12.5237042531371 0.138171429931669
12.5441781915724 -0.0270087418018461
12.5646521300077 0.0774867439969962
12.5851260684431 0.0688453873281971
12.6056000068784 0.182744271525089
12.6260739453137 0.175693813254338
12.646547883749 0.0763398458492791
12.6670218221843 0.0695782026432447
12.6874957606196 0.0798880503029006
12.707969699055 0.169769388828247
12.7284436374903 0.193388884885953
12.7489175759256 -0.0523784615239846
12.7693915143609 0.209811099598435
12.7898654527962 0.149228401586546
12.8103393912315 0.232019277773683
12.8308133296669 0.26156914482651
12.8512872681022 0.274336336078362
12.8717612065375 0.222143768195905
12.8922351449728 0.110199774512471
12.9127090834081 0.180691855028063
12.9331830218434 0.238307509742678
12.9536569602787 0.199713405322985
12.9741308987141 0.169076208435649
12.9946048371494 0.163323002414006
13.0150787755847 0.110839203924719
13.03555271402 -0.0196251870322094
13.0560266524553 0.0961485795432196
13.0765005908906 -0.0170999130156609
13.096974529326 -0.0195269147088491
13.1174484677613 0.0184515303796084
13.1379224061966 0.00318896633375743
13.1583963446319 0.0635916431535969
13.1788702830672 0.102003310839128
13.1993442215025 0.093684386057017
13.2198181599379 0.0659786188072628
13.2402920983732 -0.059238990910133
13.2607660368085 -0.0774683987295364
13.2812399752438 0.0565002768720191
13.3017139136791 0.000509193339262998
13.3221878521144 0.0162771006722004
13.3426617905498 -0.0172897511291718
13.3631357289851 0.162829471268481
13.3836096674204 0.0253847678651581
13.4040836058557 0.0560532219941922
13.424557544291 0.162386916988919
13.4450314827263 -0.113947480483999
13.4655054211617 0.181477112908776
13.485979359597 -0.0776413861660909
13.5064532980323 0.102186605624731
13.5269272364676 0.0490860882812453
13.5474011749029 0.0612341451367845
13.5678751133382 0.0149328595246812
13.5883490517735 -0.0507552685550647
13.6088229902089 0.0126072608975488
13.6292969286442 0.143822531215852
13.6497708670795 0.0160676257331794
13.6702448055148 0.243925877782864
13.6907187439501 0.152918120698241
13.7111926823854 -0.103309812187358
13.7316666208208 0.0442524957927345
13.7521405592561 0.12815712797185
13.7726144976914 0.298143667683324
13.7930884361267 0.267753781593824
13.813562374562 0.184122886370013
13.8340363129973 0.376678065345227
13.8545102514327 0.328492235186132
13.874984189868 0.434096645892728
13.8954581283033 0.563282964131678
13.9159320667386 0.842353273236333
13.9364060051739 0.928859656539993
13.9568799436092 0.913947947376027
13.9773538820446 0.778086895744415
13.9978278204799 0.887161918311818
14.0183017589152 0.797162598411586
14.0387756973505 0.669547269377048
14.0592496357858 0.530357597874864
14.0797235742211 0.759801917238365
14.1001975126565 0.7693385608009
14.1206714510918 0.74776961189579
14.1411453895271 0.972438820523034
14.1616193279624 1.18032535334931
14.1820932663977 1.2073667103746
14.202567204833 1.46502122493226
14.2230411432683 1.4702159803556
14.2435150817037 1.47685722664464
14.263989020139 1.4393720471327
14.2844629585743 1.39421877515312
14.3049368970096 1.41301199403923
14.3254108354449 1.36944962045769
14.3458847738802 1.43410457107519
14.3663587123156 1.33093517922503
14.3868326507509 1.43494144490724
14.4073065891862 1.54560253478847
14.4277805276215 1.6186476155354
14.4482544660568 1.79079543714801
14.4687284044921 1.80813974962631
14.4892023429275 1.77354513630364
14.5096762813628 1.89143868051333
14.5301502197981 1.84541413225538
14.5506241582334 1.80474232486311
14.5710980966687 1.50510034166987
14.591572035104 1.64310276600899
14.6120459735394 1.56640584788046
14.6325199119747 1.45730125395096
14.65299385041 1.20120565088716
14.6734677888453 1.16660862202237
14.6939417272806 1.03449975068994
14.7144156657159 0.811389453556541
14.7348896041512 0.611861063955494
14.7553635425866 0.188518748553476
14.7758374810219 0.0778208406838138
14.7963114194572 -0.026222242986824
14.8167853578925 -0.00381883579177134
14.8372592963278 0.111176895602307
14.8577332347631 0.101317034528741
14.8782071731985 -0.00214841901246454
14.8986811116338 -0.0559902983546472
14.9191550500691 0.00176403920366419
14.9396289885044 0.00106903429433192
14.9601029269397 0.0174455202506911
14.980576865375 0.0691226637394087
15.0010508038104 0.148287964760485
15.0215247422457 0.0804622566472504
15.041998680681 0.0544476227330404
15.0624726191163 0.0520148963511898
15.0829465575516 0.133059910835029
15.1034204959869 0.0801347495178929
15.1238944344223 0.173187329066449
15.1443683728576 0.245550982814027
15.1648423112929 0.289413210760632
15.1853162497282 0.25789901290626
15.2057901881635 0.278612555917578
15.2262641265988 0.356762173127922
15.2467380650342 0.746254114537293
15.2672120034695 0.682765463479016
15.2876859419048 0.555619136619765
15.3081598803401 0.729398467292877
15.3286338187754 0.689780538831675
15.3491077572107 0.454994517902836
15.369581695646 0.709936237839682
15.3900556340814 0.582209865308883
15.4105295725167 0.705929983643778
15.431003510952 0.842815342844367
15.4514774493873 0.712918026243981
15.4719513878226 0.631342200509289
15.4924253262579 0.760848282306952
15.5128992646933 0.768102938303629
15.5333732031286 0.745554085166011
15.5538471415639 0.553878806227407
15.5743210799992 0.693077101487837
15.5947950184345 0.548565637613952
15.6152689568698 0.495344414605762
15.6357428953052 0.477423849129925
15.6562168337405 0.274751857853118
15.6766907721758 0.319620107441998
15.6971647106111 0.210986931229904
15.7176386490464 0.204060662550168
15.7381125874817 0.139987134736122
15.7585865259171 0.165901764454434
15.7790604643524 0.0747733017051043
15.7995344027877 0.0410809131547988
15.820008341223 -0.0263212345298155
15.8404822796583 0.0926189419845939
15.8609562180936 0.236443109364694
15.8814301565289 0.211140850943821
15.9019040949643 0.23155591672197
15.9223780333996 0.254719556699144
15.9428519718349 0.29886093754201
15.9633259102702 0.307990475917233
15.9837998487055 0.232629005158147
16.0042737871408 0.282411941931419
16.0247477255762 0.424787202903714
16.0452216640115 0.383713121408368
16.0656956024468 0.329762614112047
16.0861695408821 0.585852347681413
16.1066434793174 0.555628155449809
16.1271174177527 0.728673370750559
16.1475913561881 0.864102576917004
16.1680652946234 1.06868660728247
16.1885392330587 1.12367546184697
16.209013171494 1.05901705727715
16.2294871099293 1.36429472690636
16.2499610483646 1.66971680406792
16.2704349868 1.54168953876185
16.2909089252353 1.87083793098812
16.3113828636706 1.93190156408009
16.3318568021059 2.20925543803776
16.3523307405412 2.30967038619445
16.3728046789765 2.22272974188349
16.3932786174119 2.20364183843823
16.4137525558472 2.47636500919198
16.4342264942825 2.52397217081144
16.4547004327178 2.54307790662991
16.4751743711531 2.56753638331408
16.4956483095884 2.53224343419727
16.5161222480237 2.63120947594615
16.5365961864591 2.34229909189406
16.5570701248944 2.22801228204099
16.5775440633297 2.29876571305361
16.598018001765 1.97252813493193
16.6184919402003 2.12169538100926
16.6389658786356 1.76579870128562
16.659439817071 1.76551517909435
16.6799137555063 1.84089689776876
16.7003876939416 1.4776209406422
16.7208616323769 1.55719772438132
16.7413355708122 1.55749183231948
16.7618095092475 1.53709701445665
16.7822834476829 1.33455493745952
16.8027573861182 1.26757393466141
16.8232313245535 1.23719567272899
16.8437052629888 1.15487848499559
16.8641792014241 1.06098695479456
16.8846531398594 0.873489832125879
16.9051270782948 0.584574616989563
16.9256010167301 0.614814226052268
16.9460749551654 0.432958659313996
16.9665488936007 0.420518333441416
16.987022832036 0.330097415101193
17.0074967704713 0.218987570959996
17.0279707089067 0.158803384351156
17.048444647342 0.23027402194134
17.0689185857773 -0.0405588496027848
17.0893925242126 0.0676589363854481
17.1098664626479 0.0197711299060387
17.1303404010832 0.0267152309589874
17.1508143395185 0.011668322877627
17.1712882779539 -0.0501091776713746
17.1917622163892 -0.0244496395025115
17.2122361548245 0.0794793061987114
17.2327100932598 0.00907349276562523
17.2531840316951 0.200530836864896
17.2736579701304 0.156455505163193
17.2941319085658 0.0122641643271783
17.3146058470011 0.060925564356856
17.3350797854364 0.180043871918892
17.3555537238717 0.16909825367995
17.376027662307 0.212984542973369
17.3965016007423 0.258317323132478
17.4169755391777 0.262127844157277
17.437449477613 0.177541106047769
17.4579234160483 0.177734192137283
17.4783973544836 0.145519602425823
17.4988712929189 0.0965223369133877
17.5193452313542 0.0893361455999765
17.5398191697896 0.0992214451522558
17.5602931082249 -0.00142593109643966
17.5807670466602 0.124633600187222
17.6012409850955 0.0776604556699093
17.6217149235308 0.166248385351619
17.6421888619661 0.148209889232354
17.6626628004014 0.0365658006454478
17.6831367388368 0.152930702924231
17.7036106772721 0.0389712627353731
17.7240846157074 0.0748958134122062
17.7445585541427 0.00419393828806336
17.765032492578 0.0898864706962781
17.7855064310133 0.101504660636851
17.8059803694487 0.104152674776449
17.826454307884 0.0913200964484042
17.8469282463193 0.113788175652716
17.8674021847546 0.243171495722721
17.8878761231899 0.182595056658416
17.9083500616252 0.193777608459801
17.9288240000606 0.313177484460212
17.9492979384959 -0.0138928153403533
17.9697718769312 0.10058754239144
17.9902458153665 0.0303164743222558
18.0107197538018 0.13206481378543
18.0311936922371 0.0073950607809638
18.0516676306725 0.044328048642188
18.0721415691078 0.201197110702435
18.0926155075431 0.0222730802950413
18.1130894459784 0.153389290753338
18.1335633844137 -0.0174334245893403
18.154037322849 -0.00451798239966106
18.1745112612844 -0.0250369826806948
18.1949851997197 0.298338424570628
18.215459138155 -0.00444384397902378
18.2359330765903 0.0900537116703487
18.2564070150256 0.247195674852078
18.2768809534609 0.0711487122328328
18.2973548918962 0.124412823812611
18.3178288303316 0.130946342924748
18.3383027687669 0.191009686235909
18.3587767072022 0.132727853746095
18.3792506456375 0.0784966787886381
18.3997245840728 0.132482828030206
18.4201985225081 -0.0126053651958685
18.4406724609435 -0.0729137342229187
18.4611463993788 0.00247367150956889
18.4816203378141 0.195192984774413
18.5020942762494 0.0377962889049502
18.5225682146847 0.181325250567845
18.54304215312 0.0789048697630966
18.5635160915554 -0.0507148535092937
18.5839900299907 -0.00571100258265992
18.604463968426 0.00446684487989946
18.6249379068613 -0.049012983458517
18.6454118452966 0.0239536790687584
18.6658857837319 0.0840439157950582
18.6863597221673 -0.0288985232796195
18.7068336606026 0.030178445178062
18.7273075990379 -0.0733605954985654
18.7477815374732 0.0341822713571652
18.7682554759085 -0.033911704254748
18.7887294143438 0.0608991443323659
18.8092033527792 0.0699169004518349
18.8296772912145 -0.0472230192296699
18.8501512296498 0.0336981352878492
18.8706251680851 -0.0688300526622752
18.8910991065204 -0.0279846664133734
18.9115730449557 0.0619352985337753
18.932046983391 -0.0407086623200524
18.9525209218264 0.0390834510251453
18.9729948602617 0.0317803885693666
18.993468798697 -0.0808470163540544
19.0139427371323 -0.0149445970784506
19.0344166755676 0.0294109254848362
19.0548906140029 0.0621921055804804
19.0753645524383 -0.094986473458185
19.0958384908736 0.00839602170217413
19.1163124293089 0.106714591061559
19.1367863677442 0.123146317953301
19.1572603061795 0.0772224523774001
19.1777342446148 0.0639950776671909
19.1982081830502 0.354297527156005
19.2186821214855 0.228077717510512
19.2391560599208 0.273877315397376
19.2596299983561 0.414873404149932
19.2801039367914 0.265649317101511
19.3005778752267 0.464225887585447
19.3210518136621 0.294457282268409
19.3415257520974 0.309728917817063
19.3619996905327 0.374624127564739
19.382473628968 0.177944994844775
19.4029475674033 0.214483186323833
19.4234215058386 0.238144952001918
19.4438954442739 0.379138625212358
19.4643693827093 0.479912122621827
19.4848433211446 0.481871694230317
19.5053172595799 0.628506923371161
19.5257911980152 0.744036560044369
19.5462651364505 0.691741854249932
19.5667390748858 0.859643639321189
19.5872130133212 0.967793998591471
19.6076869517565 0.635984598727437
19.6281608901918 0.769163356395768
19.6486348286271 0.699361521596453
19.6691087670624 0.720849927662833
19.6895827054977 0.681284824594896
19.7100566439331 0.753843295725985
19.7305305823684 0.778369091056108
19.7510045208037 0.838195543918575
19.771478459239 0.952853904313407
19.7919523976743 0.899687922240602
19.8124263361096 0.967760097700153
19.832900274545 1.20785168069206
19.8533742129803 1.08871267121632
19.8738481514156 1.32258265260627
19.8943220898509 1.30269079152858
19.9147960282862 1.38580792131659
19.9352699667215 1.62401737530362
19.9557439051569 1.66054832015633
19.9762178435922 1.78055700587475
19.9966917820275 1.81607468245885
20.0171657204628 1.86866384990863
20.0376396588981 2.34978284155745
20.0581135973334 2.43781707407196
20.0785875357687 2.7668811307855
20.0990614742041 3.02447501169805
20.1195354126394 3.18846330014297
20.1400093510747 3.08566891278691
20.16048328951 2.7330189329632
20.1809572279453 2.60316961067185
20.2014311663806 2.6817980292462
20.221905104816 2.32437293868624
20.2423790432513 2.61292558899196
20.2628529816866 2.56959139683005
20.2833269201219 2.51598494553382
20.3038008585572 2.60444998510329
20.3242747969925 2.78160109887178
20.3447487354279 2.70629245350597
20.3652226738632 2.70274279900584
20.3856966122985 3.02355630203807
20.4061705507338 3.15701421260266
20.4266444891691 3.18384569736628
20.4471184276044 3.54285283966225
20.4675923660398 3.17934813949058
20.4880663044751 3.40713368018459
20.5085402429104 3.50615737841098
20.5290141813457 3.68475256750304
20.549488119781 3.6147942474608
20.5699620582163 3.43820950161759
20.5904359966516 3.7917170799734
20.610909935087 3.8029211491949
20.6313838735223 4.07859254261542
20.6518578119576 3.7723770935683
20.6723317503929 4.08739980205355
20.6928056888282 4.13433775140448
20.7132796272635 4.10199302495444
20.7337535656989 4.04895937270342
20.7542275041342 4.02601804465142
20.7747014425695 3.89775237413178
20.7951753810048 3.90895402781117
20.8156493194401 3.73019592235624
20.8361232578754 3.68179055776702
20.8565971963108 3.8939462673768
20.8770711347461 3.4278609678523
20.8975450731814 3.37598257586013
20.9180190116167 3.42711317473367
20.938492950052 3.46146109780623
20.9589668884873 3.48683884507781
20.9794408269227 3.58788183321508
20.999914765358 3.47813172888472
21.0203887037933 3.24873436542003
21.0408626422286 3.48823140948772
21.0613365806639 3.44922702775442
21.0818105190992 3.51323163688682
21.1022844575346 3.72060982021824
21.1227583959699 3.76667407774868
21.1432323344052 3.79465357614481
21.1637062728405 3.8540274820733
21.1841802112758 3.88620204553416
21.2046541497111 3.6502918498607
21.2251280881464 3.59942189505293
21.2456020265818 3.68020676444419
21.2660759650171 3.41999020803447
21.2865499034524 3.67033472582378
21.3070238418877 3.51717781781211
21.327497780323 3.33031115066613
21.3479717187583 3.02900555771918
21.3684456571937 2.97393812230459
21.388919595629 2.79792134442235
21.4093935340643 2.58298647407247
21.4298674724996 2.49710226125494
21.4503414109349 2.28766453930311
21.4708153493702 2.0692566415503
21.4912892878056 2.05802440132985
21.5117632262409 1.6224574019751
21.5322371646762 1.59588897681936
21.5527111031115 1.72962120919598
21.5731850415468 1.3452686824383
21.5936589799821 1.54439389654631
21.6141329184175 1.26710101818667
21.6346068568528 1.15401504735939
21.6550807952881 1.12050056739781
21.6755547337234 1.0298388283019
21.6960286721587 1.01354024673837
21.716502610594 1.09374023937386
21.7369765490294 1.01132422287503
21.7574504874647 0.912125530575236
21.7779244259 0.764894162474464
21.7983983643353 0.973275951906045
21.8188723027706 0.871906315536651
21.8393462412059 0.824066503366281
21.8598201796412 0.814131515394936
21.8802941180766 0.730122184955955
21.9007680565119 0.686621845382659
21.9212419949472 0.639359663341727
21.9417159333825 0.70291897216648
21.9621898718178 0.735372688523597
21.9826638102531 0.581772895746399
22.0031377486885 0.591077927168224
22.0236116871238 0.582298199455745
22.0440856255591 0.762464962608949
22.0645595639944 0.601630299961189
22.0850335024297 0.934429628179113
22.105507440865 0.781696280596061
22.1259813793004 0.741086507212033
22.1464553177357 0.85166280802704
22.166929256171 0.644675183041062
22.1874031946063 0.819342382254108
22.2078771330416 0.656914405666178
22.2283510714769 0.881349586610613
22.2488250099123 0.650200008420732
22.2692989483476 0.794194837763206
22.2897728867829 0.757344491304714
22.3102468252182 0.879492719045236
22.3307207636535 0.867670770984793
22.3511947020888 0.768753647123365
22.3716686405241 0.903053847460971
22.3921425789595 0.799217205330931
22.4126165173948 1.01323330406658
22.4330904558301 0.909685477001255
22.4535643942654 0.916959140801619
22.4740383327007 0.897033462134337
22.494512271136 0.832981357666089
22.5149862095714 0.843292410730196
22.5354601480067 1.10244578799332
22.555934086442 0.861743572788804
22.5764080248773 1.10295659844998
22.5968819633126 0.997959864976859
22.6173559017479 1.00248253903609
22.6378298401833 0.817045453961001
22.6583037786186 0.97420069308495
22.6787777170539 0.968739923074583
22.6992516554892 0.778527727263239
22.7197255939245 0.73689743898425
22.7401995323598 0.911557391570957
22.7606734707952 0.875424251690027
22.7811474092305 0.797768852674782
22.8016213476658 0.901247444525231
22.8220952861011 0.750964193908034
22.8425692245364 1.02660660082319
22.8630431629717 0.859685081937385
22.8835171014071 0.816605887250592
22.9039910398424 0.929921100096163
22.9244649782777 0.674891137140759
22.944938916713 0.719484748384379
22.9654128551483 0.813701933827014
22.9858867935836 0.658063526802014
23.0063607320189 0.759079943976047
23.0268346704543 0.453990768682425
23.0473086088896 0.698525167587828
23.0677825473249 0.685391474025594
23.0882564857602 0.849485521329056
23.1087304241955 0.785859392831532
23.1292043626308 0.626023505199702
23.1496783010662 0.734561191766897
23.1701522395015 0.347149535866456
23.1906261779368 0.612226037498369
23.2111001163721 0.683436529995967
23.2315740548074 0.52692684669259
23.2520479932427 0.668738654254907
23.2725219316781 0.494288619349588
23.2929958701134 0.342118408643284
23.3134698085487 0.460925938802674
23.333943746984 0.322065376494429
23.3544176854193 0.243245055051868
23.3748916238546 0.0864441411416648
23.39536556229 0.30088138476382
23.4158395007253 0.281088035918332
23.4363134391606 0.227584927938539
23.4567873775959 0.155997060824432
23.4772613160312 0.199136934576016
23.4977352544665 0.157785799193295
23.5182091929019 0.141318654676265
23.5386831313372 0.42968341769159
23.5591570697725 0.254650921572614
23.5796310082078 0.238616999652652
23.6001049466431 0.280019151931714
23.6205788850784 0.291617795076471
23.6410528235137 0.260392095753589
23.6615267619491 0.259258720629729
23.6820007003844 0.206186419704892
23.7024746388197 0.123310609645749
23.722948577255 0.204641707118962
23.7434225156903 0.132471378791199
23.7638964541256 0.0695600413291266
23.784370392561 0.209918111399414
23.8048443309963 0.298337255668724
23.8253182694316 0.252786224137058
23.8457922078669 0.256858766804418
23.8662661463022 0.266284050337468
23.8867400847375 0.111791241402877
23.9072140231729 0.21004700666731
23.9276879616082 0.0792805127974335
23.9481619000435 0.00855425979324842
23.9686358384788 0.124170330988088
23.9891097769141 0.117534976381952
24.0095837153494 0.0303148626415058
24.0300576537848 0.138551656433419
24.0505315922201 0.0281828577576899
24.0710055306554 -0.0234477833856825
24.0914794690907 -0.0382890347532205
24.111953407526 0.0707120380782666
24.1324273459613 -0.127434148224556
24.1529012843966 0.0326369896716458
24.173375222832 -0.0805849648997946
24.1938491612673 0.00816040472779073
24.2143230997026 -0.0188352347789338
24.2347970381379 0.143115616580033
24.2552709765732 -0.0593724578619753
24.2757449150085 -0.0481744581049604
24.2962188534439 0.0535196532916443
24.3166927918792 -0.0217251611127265
24.3371667303145 -0.01479431798474
24.3576406687498 -0.0480836506577279
24.3781146071851 0.0177297575349745
24.3985885456204 -0.0400103434066326
24.4190624840558 0.208383546517452
24.4395364224911 0.114473927307228
24.4600103609264 0.0324274656293608
24.4804842993617 -0.0273391718494815
24.500958237797 -0.0397575885158467
24.5214321762323 0.0482288190168116
24.5419061146677 0.114224217415162
24.562380053103 0.16083277334587
24.5828539915383 -0.08798717985773
24.6033279299736 -0.013746058862307
24.6238018684089 0.138764469665473
24.6442758068442 0.0349089890589464
24.6647497452796 0.143437499318109
24.6852236837149 0.104975000442963
24.7056976221502 0.126552742433509
24.7261715605855 0.154785308623079
24.7466454990208 0.15712061567834
24.7671194374561 0.237725330265959
24.7875933758914 0.205193202385935
24.8080673143268 0.163690898704937
24.8285412527621 0.325458002556294
24.8490151911974 0.400129930606678
24.8694891296327 0.45932126618942
24.889963068068 0.264750759304518
24.9104370065033 0.428397576618641
24.9309109449387 0.189845051465121
24.951384883374 0.441020267177293
24.9718588218093 0.304319057088489
24.9923327602446 0.234168504532044
25.0128066986799 0.244891526174622
25.0332806371152 0.221904788682893
25.0537545755506 0.270677042056853
25.0742285139859 0.263604119629838
25.0947024524212 0.103029771401847
25.1151763908565 -0.126410585960453
25.1356503292918 0.050543464209606
25.1561242677271 -0.0861601614213118
25.1765982061625 0.255145203813462
25.1970721445978 0.0353970599139272
25.2175460830331 0.106157906880083
25.2380200214684 -0.0182493386214028
25.2584939599037 0.0267586567428024
25.278967898339 -0.0869431070273018
25.2994418367743 -0.0116983799317139
25.3199157752097 0.0705181190019631
25.340389713645 0.0226706921346656
25.3608636520803 -0.0471677438669423
25.3813375905156 0.0302736443304748
25.4018115289509 -0.0522968099397504
25.4222854673862 0.136110476655717
25.4427594058216 0.0720580041168735
25.4632333442569 -0.0530479775562781
25.4837072826922 0.157927948302927
25.5041812211275 -0.0176704683055081
25.5246551595628 -0.0160411440482526
25.5451290979981 0.12245133774136
25.5656030364335 0.0540569770633297
25.5860769748688 -0.128776309415676
25.6065509133041 -0.0106839383623229
25.6270248517394 0.121693034286087
25.6474987901747 0.0628081644668554
25.66797272861 0.194171868846648
25.6884466670454 0.0548466474254638
25.7089206054807 -0.0140216664633611
25.729394543916 -0.00982890615316229
25.7498684823513 -0.0536518787118179
25.7703424207866 0.0198570562618842
25.7908163592219 -0.0393021012320551
25.8112902976573 0.143870648806362
25.8317642360926 0.0225003063771377
25.8522381745279 -0.0909131285197285
25.8727121129632 0.0549324274490952
25.8931860513985 -0.0490776090497231
25.9136599898338 0.0527859286504835
25.9341339282691 -0.0522373761169518
25.9546078667045 0.0798628933146366
25.9750818051398 -0.0196632630547504
25.9955557435751 0.0918924881082214
26.0160296820104 0.02781139680355
26.0365036204457 -0.063469036968764
26.056977558881 0.12273868679128
26.0774514973164 0.0148199847503493
26.0979254357517 0.229962356908442
26.118399374187 0.0481137199322255
26.1388733126223 0.0565136571550347
26.1593472510576 0.203078835243534
26.1798211894929 0.183121754197725
26.2002951279283 0.0591424140176071
26.2207690663636 0.0212449813698471
26.2412430047989 0.161877372921111
26.2617169432342 0.203695838671399
26.2821908816695 0.0646691286207118
26.3026648201048 0.222661826102383
26.3231387585402 0.218038514449744
26.3436126969755 -0.0846174730038702
26.3640866354108 0.22485011374154
26.3845605738461 0.0956600246859751
26.4050345122814 0.065572676496102
26.4255084507167 0.223129735838585
26.4459823891521 0.0149457860467603
26.4664563275874 0.18451041045396
26.4869302660227 0.0430215257268504
26.507404204458 -0.094416701467902
26.5278781428933 0.0872998955363712
26.5483520813286 -0.0251099332603317
26.5688260197639 0.0279892288086568
26.5892999581993 0.0981598817433358
26.6097738966346 0.160662442210372
26.6302478350699 0.0436219102097671
26.6507217735052 0.0569341190748534
26.6711957119405 -0.0585155145277031
26.6916696503758 0.0332105094020973
26.7121435888112 -0.03377322580241
26.7326175272465 0.025689529858774
26.7530914656818 -0.0592345569476844
26.7735654041171 -0.0272820122661154
26.7940393425524 0.115492023281145
26.8145132809877 0.0878375496940975
26.8349872194231 0.195744150306071
26.8554611578584 0.0225451584504058
26.8759350962937 0.210167657460431
26.896409034729 0.0685074806694797
26.9168829731643 -0.0209249552557797
26.9373569115996 0.0955161830179845
26.957830850035 0.13918506215744
26.9783047884703 0.140029598829254
26.9987787269056 0.0121122930334245
27.0192526653409 0.0926727281032883
27.0397266037762 0.0887421540388406
27.0602005422115 0.285476820840086
27.0806744806468 -0.0488941048263116
27.1011484190822 0.0205252103729823
27.1216223575175 0.0497243497712993
27.1420962959528 0.0816720633686408
27.1625702343881 -0.0502983155016582
27.1830441728234 -0.0102492868396005
27.2035181112587 0.0247727427596623
27.2239920496941 0.122439179891284
27.2444659881294 -0.00631247544473906
27.2649399265647 0.0369552767515971
27.285413865 0.0673466031469579
27.3058878034353 0.136944837074676
27.3263617418706 0.0894999785347519
27.346835680306 -0.054154639139481
27.3673096187413 -0.041414849281356
27.3877835571766 0.0795422647757926
27.4082574956119 0.0378833696986341
27.4287314340472 0.194285548820498
27.4492053724825 0.0500508854747204
27.4696793109179 -0.00679978700536581
27.4901532493532 -0.0270477186197612
27.5106271877885 0.0609216739648691
27.5311011262238 -0.106172859251478
27.5515750646591 0.1982311817312
27.5720490030944 0.0158004635795688
27.5925229415298 0.121274569626961
27.6129968799651 0.316736833206713
27.6334708184004 0.0774476709854885
27.6539447568357 0.174240416296622
27.674418695271 0.127948402473448
27.6948926337063 0.0492487128492962
27.7153665721416 -0.0110774025758307
27.735840510577 0.118845056198067
27.7563144490123 0.0965681725043229
27.7767883874476 -0.0297309703237309
27.7972623258829 0.0889059610472402
27.8177362643182 0.107426883283903
27.8382102027535 0.00760262971958926
27.8586841411889 -0.0230667996457001
27.8791580796242 0.115679011854702
27.8996320180595 0.0058713142207952
27.9201059564948 0.0316246907859127
27.9405798949301 0.0340849748833888
27.9610538333654 0.0106479998465552
27.9815277718008 0.100636682342079
28.0020017102361 0.125665605703294
28.0224756486714 0.145630603263534
28.0429495871067 0.0485525083561313
28.063423525542 -0.0600999290189133
28.0838974639773 -0.0344933755282664
28.1043714024127 0.060827185483356
28.124845340848 0.00134423736067132
28.1453192792833 0.0500786134370103
28.1657932177186 -0.00130301962095984
28.1862671561539 0.0307930881867614
28.2067410945892 0.168502353526841
28.2272150330245 0.0576581097326103
28.2476889714599 -0.0803854765292615
28.2681629098952 0.0252049280745578
28.2886368483305 -0.0122894264559323
28.3091107867658 0.0701522932126024
28.3295847252011 0.0186238370801604
28.3500586636364 0.0844272884800786
28.3705326020718 -0.0358227692543139
28.3910065405071 -0.00749091945634927
28.4114804789424 0.0276625061407971
28.4319544173777 0.216606172603633
28.452428355813 0.114027579932161
28.4729022942483 0.111853811459714
28.4933762326837 0.216595283852958
28.513850171119 0.0649707471118918
28.5343241095543 0.128334367903185
28.5547980479896 0.109811146226835
28.5752719864249 0.0497656654161754
28.5957459248602 0.165645842137874
28.6162198632956 0.0368787597252644
28.6366938017309 0.00330816817834514
28.6571677401662 0.170402817497117
28.6776416786015 0.0498814576815803
28.6981156170368 0.0844524220650686
28.7185895554721 0.18427196064758
28.7390634939075 0.0641838234291165
28.7595374323428 -0.0739890729236555
28.7800113707781 0.121315771589263
28.8004853092134 0.0849941903012068
28.8209592476487 0.107410766545508
28.841433186084 0.0817946669888321
28.8619071245193 -0.0257082750354838
28.8823810629547 0.0101623571392229
28.90285500139 -0.0215309364870454
28.9233289398253 0.178691010752378
28.9438028782606 -0.00245305114250763
28.9642768166959 0.114724377828298
28.9847507551312 -0.0687350356685396
29.0052246935666 0.154199958366981
29.0256986320019 0.0856126932681927
29.0461725704372 0.0588365023684294
29.0666465088725 0.10512138566769
29.0871204473078 0.0291548431659752
29.1075943857431 0.136926458196619
29.1280683241785 0.0117695640929517
29.1485422626138 0.0911841608549762
29.1690162010491 -0.0180589181839733
29.1894901394844 -0.0911426353243994
29.2099640779197 0.00852088049853014
29.230438016355 0.168224637187151
29.2509119547904 0.0676561347414632
29.2713858932257 0.0727007898281327
29.291859831661 0.128671102447161
29.3123337700963 0.170462905931879
29.3328077085316 -0.0519237997177119
29.3532816469669 0.0721880688317226
29.3737555854023 -0.0626702384198191
29.3942295238376 -0.0476445548056699
29.4147034622729 0.174556786340838
29.4351774007082 0.0961212850197027
29.4556513391435 0.0686114412309261
29.4761252775788 0.137600171641173
29.4965992160141 0.124702059583778
29.5170731544495 0.191375438392074
29.5375470928848 0.00689114139939501
29.5580210313201 0.0998950019390725
29.5784949697554 0.122730770011108
29.5989689081907 0.187377612282169
29.619442846626 0.0633667787522538
29.6399167850614 -0.00971839724530375
29.6603907234967 -0.0149508323771698
29.680864661932 0.0102534688282391
29.7013386003673 0.0733625942326732
29.7218125388026 0.0988557105027979
29.7422864772379 0.14793073430528
29.7627604156733 0.0786605823067868
29.7832343541086 0.0577119211739849
29.8037082925439 -0.00866524909312644
29.8241822309792 0.136039488172121
29.8446561694145 0.168909466303059
29.8651301078498 0.0495801019663546
29.8856040462852 0.117895145162008
29.9060779847205 0.22541709589002
29.9265519231558 0.202875120817055
29.9470258615911 -0.0525953633902188
29.9674998000264 -0.0162547733984675
29.9879737384617 0.0521498564214534
30.008447676897 0.172782227107065
30.0289216153324 -0.0567014113416321
30.0493955537677 0.0525010244086954
30.069869492203 0.0407541176913801
30.0903434306383 0.0343599518397567
30.1108173690736 0.0502456101871573
30.1312913075089 0.0246090094002482
30.1517652459443 -0.110258183854302
30.1722391843796 0.038873197090172
30.1927131228149 0.0462219022336703
30.2131870612502 0.000329598242859087
30.2336609996855 0.0470296184510734
30.2541349381208 0.0717386295249786
30.2746088765562 0.117425381464576
30.2950828149915 0.135912790936528
30.3155567534268 -0.121497058725827
30.3360306918621 0.0183729158108429
30.3565046302974 0.20135604787987
30.3769785687327 -0.0139539125187455
30.3974525071681 0.134161784614998
30.4179264456034 0.130078139281098
30.4384003840387 0.072753484812889
30.458874322474 0.098906571210371
30.4793482609093 0.030151981806878
30.4998221993446 0.0800313832690761
30.52029613778 0.0350031089302989
30.5407700762153 0.0617338254572126
30.5612440146506 -0.0975889671501831
30.5817179530859 0.0192743144414458
30.6021918915212 0.0203965868987665
30.6226658299565 0.190934100221777
30.6431397683918 0.0764597710771468
30.6636137068272 -0.0912555672017932
30.6840876452625 0.0107047520516243
30.7045615836978 0.00343447883740072
30.7250355221331 -0.0557747201778002
30.7455094605684 0.0309938216726908
30.7659833990037 -0.0344369789444605
30.7864573374391 -0.042836470845007
30.8069312758744 0.0478667781201373
30.8274052143097 -0.0240459820490271
30.847879152745 0.0643419153141665
30.8683530911803 -0.0723861964569492
30.8888270296156 0.0657696826376256
30.909300968051 0.0738616359312254
30.9297749064863 -0.0468082532428164
30.9502488449216 0.0852704317821659
30.9707227833569 -0.0272981423271617
30.9911967217922 -0.146717421488146
31.0116706602275 0.0790597902165607
31.0321445986629 -0.045279007213042
31.0526185370982 -0.0158275637769537
31.0730924755335 0.0736641205248266
31.0935664139688 -0.108835204307703
31.1140403524041 0.0929244617254589
31.1345142908394 0.0917035352909787
31.1549882292748 0.0776061830555227
31.1754621677101 -0.0300967616475754
31.1959361061454 -0.0478115488183158
31.2164100445807 0.0452951548766356
31.236883983016 0.120317099437277
31.2573579214513 -0.0714436318030572
31.2778318598866 0.122356711155633
31.298305798322 0.051978544980015
31.3187797367573 -0.0208593803299119
31.3392536751926 -0.0336570647741476
31.3597276136279 -0.161224931407385
31.3802015520632 0.0312279868155711
31.4006754904985 -0.0808621874291148
31.4211494289339 -0.0313496208081096
31.4416233673692 0.0573698533452527
31.4620973058045 -0.0269433483023592
31.4825712442398 -0.0746538090842809
31.5030451826751 0.0019641956592795
31.5235191211104 -0.117887975398137
31.5439930595458 0.123081344410138
31.5644669979811 -0.0303361782492292
31.5849409364164 -0.0377759600429046
31.6054148748517 0.0161265823624437
31.625888813287 -0.0365973010331828
31.6463627517223 -0.057926776896452
31.6668366901577 -0.0166118452273637
31.687310628593 -0.0350483393592514
31.7077845670283 -0.0416216759587806
31.7282585054636 -0.00117560502595181
31.7487324438989 -0.023085126560765
31.7692063823342 -0.053964823896555
31.7896803207695 -0.0703771970333201
31.8101542592049 -0.0137284959710602
31.8306281976402 0.0339500292902238
31.8511021360755 -0.136977037916135
31.8715760745108 0.0529173857431979
31.8920500129461 -0.0369916997317781
31.9125239513814 -0.03430846100773
31.9329978898168 -0.0359355742133403
31.9534718282521 -0.0470433715772637
31.9739457666874 0.0682953219245042
31.9944197051227 -0.0571069937080373
32.014893643558 -0.00397948514155374
32.0353675819933 0.0870528476239539
32.0558415204287 -0.00927041207818101
32.076315458864 -0.0090950975812909
32.0967893972993 -0.0241028733097404
32.1172633357346 0.0521795918275022
32.1377372741699 0.0687106311637683
32.1582112126052 0.0437194113657259
32.1786851510406 0.055330932433375
32.1991590894759 -0.0748402222999523
32.2196330279112 0.0464351138324115
32.2401069663465 0.0233236074971338
32.2605809047818 0.0954085920275461
32.2810548432171 -0.0146536825763501
32.3015287816525 0.0746472003521118
32.3220027200878 -0.067678342520401
32.3424766585231 -0.0748837941571249
32.3629505969584 0.136805161738509
32.3834245353937 0.116867691833168
32.403898473829 0.000720462793518152
32.4243724122643 0.113884307952892
32.4448463506997 0.0956821439779578
32.465320289135 0.110176470868714
32.4857942275703 0.115700621958496
32.5062681660056 0.0770983472473002
32.5267421044409 0.144109230068463
32.5472160428762 -0.0465479795780146
32.5676899813116 0.00122046830786326
32.5881639197469 -0.0302937596072338
32.6086378581822 0.0854718366766937
32.6291117966175 0.065965173826312
32.6495857350528 0.105196668508289
32.6700596734881 -0.118448262610711
32.6905336119235 0.0942491304693143
32.7110075503588 -0.0314507355849688
32.7314814887941 0.0226813058931048
32.7519554272294 -0.0441359950964631
32.7724293656647 0.0272119447796595
32.7929033041 0.127350125521473
32.8133772425354 0.077893130462312
32.8338511809707 -0.0391277903978255
32.854325119406 0.0223811129410617
32.8747990578413 0.0918469238123073
32.8952729962766 0.0859363088825763
32.9157469347119 0.0515242681518707
32.9362208731472 -0.0595662817131452
32.9566948115826 -0.00905409071246926
32.9771687500179 -0.130755490771224
32.9976426884532 0.0146146000357121
33.0181166268885 -0.0195584016249942
33.0385905653238 0.0128192542466581
33.0590645037591 -0.00804409901599913
33.0795384421945 0.0441536219203679
33.1000123806298 0.0743603337224257
33.1204863190651 -0.071069796943158
33.1409602575004 0.115675729923615
33.1614341959357 0.0460552476560805
33.181908134371 -0.04816041041243
33.2023820728064 -0.045619870443481
33.2228560112417 0.0859713270578245
33.243329949677 -0.0244805679085105
33.2638038881123 0.0188577779908442
33.2842778265476 0.0480176147558912
33.3047517649829 0.0330510257199617
33.3252257034183 0.141926760883056
33.3456996418536 0.0126656535785103
33.3661735802889 -0.0200968795270123
33.3866475187242 -0.0110483384335109
33.4071214571595 0.017651815673986
33.4275953955948 0.0764442939805079
33.4480693340302 0.0194957631527191
33.4685432724655 -0.0151729434760439
33.4890172109008 0.0805110907608829
33.5094911493361 0.0370166158635021
33.5299650877714 0.0743957151651457
33.5504390262067 0.0350963053324798
33.570912964642 0.183441303032172
33.5913869030774 0.00250362493088793
33.6118608415127 0.143324937695296
33.632334779948 0.012155241325394
33.6528087183833 -0.0667867141788154
33.6732826568186 0.0523324045159977
33.6937565952539 0.0570125974098369
33.7142305336893 0.0071496978360328
33.7347044721246 -0.0647042108720798
33.7551784105599 0.0862425379521661
33.7756523489952 -0.0217808890245648
33.7961262874305 0.163308841531062
33.8166002258658 0.0334388129523803
33.8370741643012 0.141994441906058
33.8575481027365 -0.00190968827457567
33.8780220411718 0.100424339077149
33.8984959796071 0.0414444406278981
33.9189699180424 0.00083811637767317
33.9394438564777 -0.115144633673529
33.9599177949131 0.145319107140961
33.9803917333484 0.0126980888211414
34.0008656717837 0.0520964780336789
34.021339610219 -0.00471489188809097
34.0418135486543 -0.00799643761083757
34.0622874870896 -0.0517232641993739
34.082761425525 0.107819316744447
34.1032353639603 -0.0541082781127065
34.1237093023956 0.149993951229163
34.1441832408309 -0.00643649522994233
34.1646571792662 -0.0663683674900236
34.1851311177015 0.0821775011155864
34.2056050561368 -0.105069722746446
34.2260789945722 0.0906399609238799
34.2465529330075 -0.0273080312067699
34.2670268714428 0.0801488008616042
34.2875008098781 0.11873962379567
34.3079747483134 0.00643318759542614
34.3284486867487 -0.0575517577391258
34.3489226251841 -0.00420479554132119
34.3693965636194 0.00215328749811744
34.3898705020547 0.037301611403247
34.41034444049 0.0491568428407337
34.4308183789253 -0.0417081015227555
34.4512923173606 0.142310944979447
34.471766255796 0.0100681490140066
34.4922401942313 0.0225010105809244
34.5127141326666 0.0715366130135334
34.5331880711019 -0.0693875436881668
34.5536620095372 0.00858270714249064
34.5741359479725 -0.0239797178278269
34.5946098864079 -0.029053985265787
34.6150838248432 -0.0634218573613522
34.6355577632785 0.0163078772113337
34.6560317017138 0.0219632693163767
34.6765056401491 0.0277630689537773
34.6969795785844 0.0558426927902023
34.7174535170197 0.133545890825652
34.7379274554551 0.0473309963934595
34.7584013938904 -0.0139999071730419
34.7788753323257 -0.0829989032071853
34.799349270761 0.092938174957695
34.8198232091963 -0.0265532560117333
34.8402971476316 -0.0339211127821371
34.860771086067 -0.00338414535351633
34.8812450245023 -0.0130673537258715
34.9017189629376 -0.0395332378992022
34.9221929013729 0.0174786187931587
34.9426668398082 -0.058177616982123
34.9631407782435 -0.055564445225047
34.9836147166789 -0.0635547889903053
35.0040886551142 0.000126161638219686
35.0245625935495 -0.067558896867563
35.0450365319848 0.0524004521590123
35.0655104704201 -0.0254124579487223
35.0859844088554 0.0115023728092337
35.1064583472908 -0.0516988055671187
35.1269322857261 0.0336819235888872
35.1474062241614 0.15436331027725
35.1678801625967 -0.0568421455020295
35.188354101032 -0.032226110415617
35.2088280394673 -0.00616358446351389
35.2293019779027 0.0109287656876134
35.249775916338 -0.0981365599622345
35.2702498547733 0.137994605253609
35.2907237932086 0.0500514280018099
35.3111977316439 -0.0429556750509653
35.3316716700792 -0.010818370571382
35.3521456085145 -0.00978665855944115
35.3726195469499 0.0343582109848568
35.3930934853852 0.0877620713948471
35.4135674238205 -0.0175438273294724
35.4340413622558 0.131200931478566
35.4545153006911 0.0457150978189625
35.4749892391264 0.00855075502504951
35.4954631775618 0.000176653096827596
35.5159371159971 -0.0627405412990363
35.5364110544324 -0.00870084090579493
35.5568849928677 0.0288610392819575
35.577358931303 0.0183902436687327
35.5978328697383 0.0510326055878667
35.6183068081737 -0.101076458293974
35.638780746609 0.142792218689875
35.6592546850443 0.0313365532060821
35.6797286234796 0.101014878587981
35.7002025619149 0.127868861502237
35.7206765003502 -0.00268483138448277
35.7411504387856 0.120812133261155
35.7616243772209 0.132474338772485
35.7820983156562 0.0140726184828382
35.8025722540915 -0.050799277607783
35.8230461925268 0.00426490050061942
35.8435201309621 -0.0225577638586211
35.8639940693974 0.0978993959811651
35.8844680078328 -0.0627490366466928
35.9049419462681 -0.0188259784088592
35.9254158847034 0.0639138530031454
35.9458898231387 0.0829960086141741
35.966363761574 0.0319100717575612
35.9868377000093 0.143728959099972
36.0073116384447 -0.0932660793585923
36.02778557688 0.068320789715201
36.0482595153153 0.0751041496546852
36.0687334537506 -0.0052076662068059
36.0892073921859 -0.038500074535939
36.1096813306212 0.109341508000618
36.1301552690566 0.0281608314028672
36.1506292074919 0.0486870623374733
36.1711031459272 -0.0608506325288953
36.1915770843625 -0.087496294337099
36.2120510227978 0.102148284720387
36.2325249612331 0.0523539379768984
36.2529988996685 0.0625998320991005
36.2734728381038 0.0274172170869945
36.2939467765391 0.0509727596072455
36.3144207149744 0.155401876326522
36.3348946534097 0.0112774839114882
36.355368591845 0.118599582362146
36.3758425302804 0.190909838345161
36.3963164687157 -0.00877091480613186
36.416790407151 0.101588572908265
36.4372643455863 -0.0313971151783123
36.4577382840216 0.0180532709341344
36.4782122224569 0.0793668145789391
36.4986861608922 0.0158247657561006
36.5191600993276 0.0526875411322874
36.5396340377629 -0.00926360929250163
36.5601079761982 0.00575256448173374
36.5805819146335 0.0938298124549933
36.6010558530688 -0.0640422820393893
36.6215297915041 0.0620841976652524
36.6420037299395 0.0464280015689193
36.6624776683748 0.0699787130049433
36.6829516068101 0.110600915306658
36.7034255452454 0.058919608474065
36.7238994836807 0.0555597925071623
36.744373422116 -0.00364519926071608
36.7648473605514 0.0531796331704306
36.7853212989867 0.102336373133935
36.805795237422 0.0110125206297962
36.8262691758573 0.0109789089913495
36.8467431142926 0.0149959548852598
36.8672170527279 0.000928241644861258
36.8876909911633 -0.0142971473965124
36.9081649295986 -0.0022354763312471
36.9286388680339 0.00346018559970972
36.9491128064692 -0.0206476616036424
36.9695867449045 0.0686701487253633
36.9900606833398 0.00318444992005936
37.0105346217752 0.14747857531378
37.0310085602105 0.0718650249065256
37.0514824986458 -0.0504791179683712
37.0719564370811 -0.0255434366442436
37.0924303755164 0.052922068878908
37.1129043139517 -0.00779093473224843
37.133378252387 -0.0517828322077319
37.1538521908224 0.0280675945158101
37.1743261292577 0.0208228454383757
37.194800067693 -0.0800274961067007
37.2152740061283 0.00155823654724745
37.2357479445636 -0.0482220399331134
37.2562218829989 0.0492775077855503
37.2766958214343 -0.0405785369634284
37.2971697598696 -0.00919642418004916
37.3176436983049 0.135611346135688
37.3381176367402 0.160771857317116
37.3585915751755 -0.0417878073024322
37.3790655136108 0.0865261022770451
37.3995394520462 -0.0701718306111209
37.4200133904815 -0.0196941059669284
37.4404873289168 0.139000942876289
37.4609612673521 -0.0485137674148036
37.4814352057874 0.00500134649312844
37.5019091442227 0.0547546179334186
37.5223830826581 -0.00342061976060038
37.5428570210934 -0.0249931165889283
37.5633309595287 0.0134746274484354
37.583804897964 -0.0703090543151774
37.6042788363993 -0.000302495213098337
37.6247527748346 0.0971922214213381
37.6452267132699 0.0945709289214659
37.6657006517053 -0.0628538727127155
37.6861745901406 0.0715323998521278
37.7066485285759 0.0472089132826621
37.7271224670112 -0.00170974908777904
37.7475964054465 -0.0603043987489762
37.7680703438818 0.0283807757888512
37.7885442823172 0.0351791078590365
37.8090182207525 0.160611430794913
37.8294921591878 -0.0419368387368527
37.8499660976231 -0.0477261174029273
37.8704400360584 -0.00128765520331087
37.8909139744937 -0.0067881188046699
37.9113879129291 -0.0317610810281953
37.9318618513644 -0.0383604690526962
37.9523357897997 0.00856996712182792
37.972809728235 0.029603144162043
37.9932836666703 0.0403640620679488
38.0137576051056 -0.0099285291604545
38.034231543541 -0.0831693326931742
38.0547054819763 0.0390467713064633
38.0751794204116 0.0338031161717918
38.0956533588469 0.0287038685694788
38.1161272972822 0.00682194516618934
38.1366012357175 -0.0487697373714086
38.1570751741529 0.039012154290018
38.1775491125882 -0.0188948798495319
38.1980230510235 -0.00374083979005579
38.2184969894588 -0.0640650401809024
38.2389709278941 0.117942666960609
38.2594448663294 -0.0540718850321876
38.2799188047647 0.0188496371740402
38.3003927432001 -0.0356885997540423
38.3208666816354 0.0414279875169011
38.3413406200707 -0.062300601013131
38.361814558506 0.0658860513225276
38.3822884969413 0.0509879445238766
38.4027624353766 0.0818071619242508
38.423236373812 -0.112489629809685
38.4437103122473 -0.060548264011262
38.4641842506826 -0.00456072779888794
38.4846581891179 -0.00400967367949789
38.5051321275532 -0.0299411381663905
38.5256060659885 -0.00885319512092643
38.5460800044239 0.0214937387902287
38.5665539428592 -0.0092128364329243
38.5870278812945 0.0422562458762803
38.6075018197298 0.0730364023845085
38.6279757581651 -0.164268200241571
38.6484496966004 0.0113320213313737
38.6689236350358 0.0581704004366755
38.6893975734711 0.0296323537410018
38.7098715119064 0.0767595479110195
38.7303454503417 0.0979894829467279
38.750819388777 -0.105896591151872
38.7712933272123 0.0627575756152186
38.7917672656477 0.074004066581334
38.812241204083 -0.128146701586859
38.8327151425183 0.0669823544439714
38.8531890809536 0.00704748467382681
38.8736630193889 0.136059105769373
38.8941369578242 0.0438609677306104
38.9146108962595 -0.160171929442461
38.9350848346949 0.0526062475834921
38.9555587731302 0.0624038321418027
38.9760327115655 0.160887490899137
38.9965066500008 0.154046807188831
39.0169805884361 -0.0284307189891188
39.0374545268714 0.028819495698623
39.0579284653068 -0.0726400487479442
39.0784024037421 -0.0321777847088337
39.0988763421774 0.111293470195967
39.1193502806127 0.0778257992997924
39.139824219048 0.122627535935976
39.1602981574833 0.154552846771183
39.1807720959187 0.0967788151387492
39.201246034354 -0.135329975627995
39.2217199727893 -0.00140894219571308
39.2421939112246 -0.0120155649306185
39.2626678496599 0.142886803200165
39.2831417880952 0.0323085788633089
39.3036157265306 0.010416428725476
39.3240896649659 0.0186166027866678
39.3445636034012 0.0569091010468845
39.3650375418365 0.0458668401727909
39.3855114802718 0.0818439868310567
39.4059854187071 0.142705124355012
39.4264593571424 0.0552731694113268
39.4469332955778 -0.0202956280000013
39.4674072340131 -0.0761887678789719
39.4878811724484 -0.0493239132526317
39.5083551108837 0.0584145155727333
39.528829049319 0.0803598519304566
39.5493029877543 0.0477620958205372
39.5697769261897 -0.0172433360903576
39.590250864625 0.0832602228644382
39.6107248030603 0.126616522684925
39.6311987414956 0.0360026467044368
39.6516726799309 -0.12347723841036
39.6721466183662 -0.0145835493261331
39.6926205568016 0.0892462139571181
39.7130944952369 -0.0606858652272718
39.7335684336722 0.0837972964540287
39.7540423721075 -0.0567313843323134
39.7745163105428 -0.0317510742529643
39.7949902489781 0.0142069766920762
39.8154641874135 -0.125888481497193
39.8359381258488 -0.0283271285624913
39.8564120642841 -0.0478088680954337
39.8768860027194 -0.0632399500960176
39.8973599411547 -0.0438471148558568
39.91783387959 -0.112672286780693
39.9383078180254 0.0933865321601631
39.9587817564607 -0.102753991366623
39.979255694896 -0.0617709406943861
39.9997296333313 0
