'Id: "" Comment: "" Operator: "Lab Manager" Anode: "Cu" Scantype: "Coupled TwoTheta/Theta" TimePerStep: "768" 
2.00009989738464 0
2.02057383581996 -0.0149878203407994
2.04104777425528 0.0976431919338774
2.06152171269059 -0.091794463175968
2.08199565112591 -0.0875499764271579
2.10246958956122 0.0645550877113292
2.12294352799654 -0.0880126822013736
2.14341746643186 0.0784446305014015
2.16389140486717 0.0326770258196545
2.18436534330249 -0.104221746246616
2.2048392817378 0.172956647635925
2.22531322017312 0.0777538741339443
2.24578715860844 -0.130715483419225
2.26626109704375 0.0670798249764148
2.28673503547907 0.0305147993208674
2.30720897391438 0.107245689614131
2.3276829123497 -0.0555920874771276
2.34815685078502 -0.0595610319529101
2.36863078922033 0.0758076061867854
2.38910472765565 0.17473257694196
2.40957866609097 0.0445055469792779
2.43005260452628 -0.0844047337012599
2.4505265429616 -0.0531355554558068
2.47100048139691 0.104450372071791
2.49147441983223 -0.00748028445180182
2.51194835826755 0.064197474973418
2.53242229670286 -0.00994343298588518
2.55289623513818 0.0617636583369547
2.57337017357349 0.126974998941941
2.59384411200881 0.032044755495737
2.61431805044413 0.0243687613316794
2.63479198887944 -0.0418863168835699
2.65526592731476 -0.0013558958166735
2.67573986575007 0.0105433578656999
2.69621380418539 0.0849572774968852
2.71668774262071 0.0278754464102136
2.73716168105602 -0.0825771353943123
2.75763561949134 -0.0690286215656384
2.77810955792665 0.0291699748785135
2.79858349636197 0.0557686539381423
2.81905743479729 0.0706632489465822
2.8395313732326 0.0985933432371668
2.86000531166792 -0.0518473131901036
2.88047925010324 0.085487112998103
2.90095318853855 -0.0506012948648795
2.92142712697387 0.013845796554282
2.94190106540918 0.178567970588922
2.9623750038445 -0.0577368560942944
2.98284894227982 -0.00105826682869914
3.00332288071513 0.107718321719039
3.02379681915045 0.0693741595489232
3.04427075758576 0.00370091332761735
3.06474469602108 0.0265839997217903
3.0852186344564 -0.113278664601894
3.10569257289171 -0.0265786924865736
3.12616651132703 -0.0284057210891087
3.14664044976234 0.0765527495905012
3.16711438819766 0.0461092195522541
3.18758832663298 -0.0533300612038472
3.20806226506829 -0.105879676011138
3.22853620350361 0.0590332917970473
3.24901014193892 -0.192705741112621
3.26948408037424 -0.0596853733782865
3.28995801880956 0.0290788269715261
3.31043195724487 0.18035769327015
3.33090589568019 -0.014702941149082
3.35137983411551 -0.00141557628616962
3.37185377255082 0.13558437119222
3.39232771098614 0.036921901286088
3.41280164942145 0.0463470139954332
3.43327558785677 -0.0483798740130776
3.45374952629209 -0.0376233460727775
3.4742234647274 -0.138831318850333
3.49469740316272 0.144089957654256
3.51517134159803 -0.0560470165590106
3.53564528003335 0.176122341843201
3.55611921846867 0.01247303286089
3.57659315690398 0.0194113064940558
3.5970670953393 -0.00748992059063269
3.61754103377461 0.196092268273489
3.63801497220993 0.234324539753088
3.65848891064525 0.221790227181498
3.67896284908056 0.24052058055872
3.69943678751588 0.0704635165514196
3.71991072595119 0.110056535159595
3.74038466438651 0.0676329697165832
3.76085860282183 0.211421986889048
3.78133254125714 0.351319420010325
3.80180647969246 0.305033602413745
3.82228041812778 0.183241617432644
3.84275435656309 0.27891221506702
3.86322829499841 0.427982895316873
3.88370223343372 0.386964074848871
3.90417617186904 0.386324503663014
3.92465011030436 0.506793348425966
3.94512404873967 0.60774560913773
3.96559798717499 0.571993785798306
3.9860719256103 0.646933711741025
4.00654586404562 0.764857053632555
4.02701980248094 0.925763811472898
4.04749374091625 1.12574773526205
4.06796767935157 1.26454840833335
4.08844161778688 1.36039499735345
4.1089155562222 1.64766250232237
4.12938949465752 1.97530925657344
4.14986343309283 2.06338734343998
4.17033737152815 2.54601134625533
4.19081130996346 2.76172293168616
4.21128524839878 3.62718876639913
4.2317591868341 4.30516926706092
4.25223312526941 4.78524776700484
4.27270706370473 4.57263259956425
4.29318100214005 3.62565709807247
4.31365494057536 2.13702959586283
4.33412887901068 1.578104259602
4.35460281744599 1.06476650595665
4.37507675588131 0.990245501593449
4.39555069431663 0.755582913179055
4.41602463275194 0.769632907380139
4.43649857118726 0.643072567530033
4.45697250962257 0.580328976962072
4.47744644805789 0.561870885676255
4.49792038649321 0.48483371033925
4.51839432492852 0.603123700951054
4.53886826336384 0.484449190845003
4.55934220179915 0.525945596687764
4.57981614023447 0.471102501812669
4.60029007866979 0.336846989553051
4.6207640171051 0.495574893242245
4.64123795554042 0.50197371288025
4.66171189397573 0.491460115133731
4.68218583241105 0.456221600002691
4.70265977084637 0.552508167487129
4.72313370928168 0.448288567587043
4.743607647717 0.457364883635769
4.76408158615232 0.389632948966639
4.78455552458763 0.596655263579653
4.80502946302295 0.532858910808145
4.82550340145826 0.696941807318782
4.84597733989358 0.57588311977823
4.8664512783289 0.641037014853155
4.88692521676421 0.656726409210225
4.90739915519953 0.417222136182771
4.92787309363484 0.379555445770797
4.94834703207016 0.569768004640966
4.96882097050548 0.614161896126613
4.98929490894079 0.698935036894404
5.00976884737611 0.695181176944339
5.03024278581142 0.786494066276419
5.05071672424674 0.718967454890644
5.07119066268206 0.668382592787012
5.09166460111737 0.927708229965524
5.11213853955269 0.848506866426181
5.132612477988 0.824007668835649
5.15308641642332 1.22400230386059
5.17356035485864 1.09015743816768
5.19403429329395 1.27663973842359
5.21450823172927 1.21053253796163
5.23498217016459 1.43220042011515
5.2554561085999 1.47679963488415
5.27593004703522 1.8039655989353
5.29640398547053 1.95406289560192
5.31687792390585 2.15756027488402
5.33735186234117 2.53685357011493
5.35782580077648 2.87319278129466
5.3782997392118 3.32543207508986
5.39877367764711 3.75034228483387
5.41924761608243 4.28334007719335
5.43972155451775 5.20567545216832
5.46019549295306 6.60328590975876
5.48066943138838 7.78606728329802
5.50114336982369 9.83735290611942
5.52161730825901 10.6738094448896
5.54209124669433 8.38397856627532
5.56256518512964 5.66577693694315
5.58303912356496 3.68717330689312
5.60351306200027 2.44556350945858
5.62398700043559 1.83678087797284
5.64446093887091 1.75796082910259
5.66493487730622 1.14009294618114
5.68540881574154 1.12250014587517
5.70588275417686 1.05934909485135
5.72635669261217 1.02095229310967
5.74683063104749 1.09845557398346
5.7673045694828 0.978056854139407
5.78777850791812 0.917568633577492
5.80825244635344 0.98209507896439
5.82872638478875 1.10783410696676
5.84920032322407 0.853379467584617
5.86967426165938 0.878887410817947
5.8901482000947 0.732535020000088
5.91062213853002 0.834895211797707
5.93109607696533 0.95029090287747
5.95157001540065 0.845649176572711
5.97204395383596 0.825657532883429
5.99251789227128 0.842138888476292
6.0129918307066 0.936759910017966
6.03346576914191 1.00144768084178
6.05393970757723 0.796618867614413
6.07441364601254 0.914721387002519
6.09488758444786 1.0002864890061
6.11536152288318 0.662689173625166
6.13583546131849 0.848544024193039
6.15630939975381 0.788319790709722
6.17678333818913 0.905193556508551
6.19725727662444 0.789009071589524
6.21773121505976 0.93976633595264
6.23820515349507 0.770225766264568
6.25867909193039 0.892366529191974
6.27915303036571 0.902542791401524
6.29962696880102 0.752577469559885
6.32010090723634 0.997158063667056
6.34057484567165 0.830294990389707
6.36104878410697 0.843134083061167
6.38152272254229 0.951039925014771
6.4019966609776 0.885783349583853
6.42247059941292 1.09137477343508
6.44294453784823 1.07432461323512
6.46341847628355 1.18879953565063
6.48389241471887 1.23167454068163
6.50436635315418 1.32274129499476
6.5248402915895 1.25236438192338
6.54531423002481 1.41377296813414
6.56578816846013 1.60514413696038
6.58626210689545 1.64939455506876
6.60673604533076 2.11423255579262
6.62720998376608 2.21059563913195
6.6476839222014 2.52311922175343
6.66815786063671 2.75623038699039
6.68863179907203 3.38649163484283
6.70910573750734 3.55452796531074
6.72957967594266 4.3527872950608
6.75005361437798 5.156269624093
6.77052755281329 5.69544370240735
6.79100149124861 7.06145536333717
6.81147542968392 8.71784627354914
6.83194936811924 10.3625330997099
6.85242330655456 12.9434325084862
6.87289724498987 16.4449194998779
6.89337118342519 18.7459003238851
6.9138451218605 18.7916874805078
6.93431906029582 14.4012913864127
6.95479299873114 9.7140349582663
6.97526693716645 7.09840777940209
6.99574087560177 5.46977443315336
7.01621481403708 4.2578224195201
7.0366887524724 3.46776007183566
7.05716269090772 2.94333739010003
7.07763662934303 2.6376793743132
7.09811056777835 2.46354644114186
7.11858450621367 2.28552192391933
7.13905844464898 1.93433498931227
7.1595323830843 1.68863147065403
7.18000632151961 1.49893220127793
7.20048025995493 1.50456009785064
7.22095419839025 1.59744224370549
7.24142813682556 1.43513072217583
7.26190207526088 1.45252136659497
7.28237601369619 1.19648917696292
7.30284995213151 1.26078415327969
7.32332389056683 1.40191671221193
7.34379782900214 1.19931393709299
7.36427176743746 1.10349666125619
7.38474570587277 1.1053503013682
7.40521964430809 1.07336444076235
7.42569358274341 0.97628907943865
7.44616752117872 0.995113800730426
7.46664145961404 1.02436985463768
7.48711539804935 1.11874474116041
7.50758933648467 1.00740512696529
7.52806327491999 0.864830178718973
7.5485372133553 1.0243532297548
7.56901115179062 0.909151363406113
7.58948509022594 0.873391246339566
7.60995902866125 0.846760378555163
7.63043296709657 0.907383760052904
7.65090690553188 0.837813474166124
7.6713808439672 1.03778910422815
7.69185478240252 0.918768983572329
7.71232872083783 0.777628112198648
7.73280265927315 0.958116490107111
7.75327659770846 0.737577867297718
7.77375053614378 0.800908077103803
7.7942244745791 0.984044619525366
7.81469841301441 0.94453957789574
7.83517235144973 0.837340868881592
7.85564628988504 0.934583909149588
7.87612022832036 0.86647703203306
7.89659416675568 0.709843154198679
7.91706810519099 0.923015608979774
7.93754204362631 0.621879813043014
7.95801598206162 0.750446183055064
7.97848992049694 0.653766802349259
7.99896385893226 0.745904170925598
8.01943779736757 0.848472872117416
8.03991173580289 0.74272290592471
8.06038567423821 0.729435522347482
8.08085961267352 0.756527388052398
8.10133355110884 0.692488086372793
8.12180748954415 0.683150950641998
8.14228142797947 0.646484730860014
8.16275536641479 0.676239427026842
8.1832293048501 0.73725878914248
8.20370324328542 0.668084483873596
8.22417718172073 0.574185261220189
8.24465112015605 0.788894454515594
8.26512505859137 0.668982897093143
8.28559899702668 0.744398505619502
8.306072935462 0.723474613428007
8.32654687389731 0.737721637185322
8.34702081233263 0.645212493558114
8.36749475076795 0.750634682546385
8.38796868920326 0.636019454150134
8.40844262763858 0.707616808369359
8.42891656607389 0.487562161870729
8.44939050450921 0.413355514654243
8.46986444294453 0.667288533386569
8.49033838137984 0.534517468067705
8.51081231981516 0.489000652030986
8.53128625825047 0.49167558527641
8.55176019668579 0.508688101137313
8.57223413512111 0.572590282947027
8.59270807355642 0.498486297372217
8.61318201199174 0.45564697774622
8.63365595042706 0.628968157402367
8.65412988886237 0.698137336340658
8.67460382729769 0.643623264561093
8.695077765733 0.745373858730339
8.71555170416832 0.762503702181729
8.73602564260364 0.758814878248598
8.75649958103895 0.786390720264277
8.77697351947427 0.928564561562101
8.79744745790958 0.755648902142068
8.8179213963449 0.84576874200418
8.83839533478022 0.973663664481769
8.85886927321553 1.07683366957484
8.87934321165085 0.949549590616715
8.89981715008616 1.01498851094074
8.92029108852148 1.13252543054691
8.9407650269568 1.44148326610188
8.96123896539211 1.52259118427234
8.98171290382743 1.59850543505827
9.00218684226274 1.76688226845968
9.02266078069806 1.75037793447657
9.04313471913338 1.97347159977561
9.06360865756869 2.38668409769012
9.08408259600401 2.75694251155344
9.10455653443933 2.7964864246989
9.12503047287464 3.30870125379318
9.14550441130996 3.7480140821696
9.16597834974527 3.71208115982817
9.18645228818059 3.76210040343554
9.20692622661591 3.29781139632506
9.22740016505122 2.96765163849673
9.24787410348654 2.70912112995054
9.26834804192185 2.22534487068649
9.28882198035717 1.82882286070459
9.30929591879249 1.81773218333817
9.3297698572278 1.56316658858722
9.35024379566312 1.17580315978508
9.37071773409843 1.14782939693176
9.39119167253375 0.918047383360579
9.41166561096907 0.81718628573821
9.43213954940438 0.742381520731318
9.4526134878397 0.545195588339904
9.47308742627501 0.577190988563967
9.49356136471033 0.318836471403509
9.51403530314565 0.577423703525194
9.53450924158096 0.434983934929024
9.55498318001628 0.329017165614999
9.5754571184516 0.410565062249784
9.59593105688691 0.407492208166714
9.61640499532223 0.213027770032453
9.63687893375754 0.293317581180339
9.65735287219286 0.148361641610368
9.67782681062818 0.219566201322541
9.69830074906349 0.349379176983526
9.71877468749881 0.209675568593322
9.73924862593412 0.260090792818595
9.75972256436944 0.337864432992678
9.78019650280476 0.200808989115573
9.80067044124007 0.247361961187279
9.82114437967539 0.313460849207796
9.8416183181107 0.300147319843791
9.86209225654602 0.488671373095264
9.88256619498134 0.453251758962213
9.90304013341665 0.439982227444641
9.92351407185197 0.62985236187588
9.94398801028728 0.522862162255929
9.9644619487226 0.586459545251456
9.98493588715792 0.439134094195795
10.0054098255932 0.472812892422279
10.0258837640285 0.281245939930905
10.0463577024639 0.347506153388343
10.0668316408992 0.293989366127926
10.0873055793345 0.403247661482985
10.1077795177698 0.321114372786856
10.1282534562051 0.356183250039538
10.1487273946404 0.362620959907697
10.1692013330758 0.455010835724668
10.1896752715111 0.553925794157116
10.2101492099464 0.559105418538375
10.2306231483817 0.828622625535112
10.251097086817 0.786956581813992
10.2715710252523 0.689315620708352
10.2920449636877 0.990126825551522
10.312518902123 1.05006727967684
10.3329928405583 1.02148073308429
10.3534667789936 1.06191926910723
10.3739407174289 0.98648705441231
10.3944146558642 0.989194505666201
10.4148885942996 0.87342703953557
10.4353625327349 0.693872156020417
10.4558364711702 0.563811105120741
10.4763104096055 0.446785553503209
10.4967843480408 0.320660084501157
10.5172582864761 0.309132614781246
10.5377322249115 0.164807311010148
10.5582061633468 0.124663339854528
10.5786801017821 0.0975548679810503
10.5991540402174 0.17723189538972
10.6196279786527 0.0225485887471972
10.640101917088 0.0241299480534871
10.6605758555233 0.144215556641921
10.6810497939587 0.231763747845834
10.701523732394 -0.0621838116681102
10.7219976708293 -0.0983042052332435
10.7424716092646 0.0551135528132405
10.7629455476999 0.109587643475201
10.7834194861352 0.126315983419307
10.8038934245706 0.140454822645557
10.8243673630059 0.250962494487284
10.8448413014412 0.19221399894449
10.8653152398765 0.375667669350505
10.8857891783118 0.313042255705334
10.9062631167471 0.282983591342305
10.9267370551825 0.127939592928088
10.9472109936178 0.0861915104626805
10.9676849320531 0.0236247606127526
10.9881588704884 0.058728926711634
11.0086328089237 0.0404623420926611
11.029106747359 0.0052833400891652
11.0495806857944 -0.0051414126321867
11.0700546242297 -0.0129473327380603
11.090528562665 -0.0584990035617898
11.1110025011003 0.125130658229958
11.1314764395356 -0.0375791806961501
11.1519503779709 -0.0414201870067794
11.1724243164063 -0.0218090273685987
11.1928982548416 -0.0230165351149401
11.2133721932769 -0.0528552102458031
11.2338461317122 -0.124345886094523
11.2543200701475 0.0538721762121659
11.2747940085828 0.0433028211343309
11.2952679470181 0.0600918820053069
11.3157418854535 0.0391351921584282
11.3362158238888 0.0585577515936939
11.3566897623241 -0.0522133563555638
11.3771637007594 -0.027553131689344
11.3976376391947 0.0765488422590215
11.41811157763 0.086915482156197
11.4385855160654 -0.0784844619978164
11.4590594545007 0.271755259796982
11.479533392936 0.0829471475405907
11.5000073313713 0.051705784566344
11.5204812698066 0.132458254207575
11.5409552082419 0.232756639797616
11.5614291466773 0.252340524669803
11.5819030851126 0.0935536588241326
11.6023770235479 0.240771042260608
11.6228509619832 0.416648924979226
11.6433249004185 0.382906056979989
11.6637988388538 0.532771604929564
11.6842727772892 0.497755985494616
11.7047467157245 0.582546698675146
11.7252206541598 0.591831244471153
11.7456945925951 0.718317956215971
11.7661685310304 0.443777667242933
11.7866424694657 0.307272877552041
11.807116407901 0.307501503809958
11.8275903463364 0.290817712683354
11.8480642847717 0.202534004172227
11.868538223207 0.197598294943244
11.8890121616423 0.145802251663073
11.9094861000776 -0.00623954233495416
11.9299600385129 0.000587496282496769
11.9504339769483 0.0907625341820912
11.9709079153836 0.0819939046971636
11.9913818538189 0.06282327449438
12.0118557922542 0.0228339769070738
12.0323297306895 -0.0236510713980866
12.0528036691248 -0.010225620421104
12.0732776075602 0.00191241317135704
12.0937515459955 0.0166692793792951
12.1142254844308 -0.0557987717972885
12.1346994228661 -0.0813771570250617
12.1551733613014 0.0570714302344704
12.1756472997367 -0.00238198322385363
12.1961212381721 -0.0227582307333662
12.2165951766074 0.0896926877059321
12.2370691150427 0.0042416054273744
12.257543053478 0.108909355764295
12.2780169919133 0.00265427205002577
12.2984909303486 -0.089263229048766
12.318964868784 0.0987818524679209
12.3394388072193 0.0980395166000849
12.3599127456546 0.10121809668106
12.3803866840899 0.0445155093775127
12.4008606225252 0.210483838022776
12.4213345609605 0.126466832616852
12.4418084993958 0.170068659826403
12.4622824378312 0.2188934863181
12.4827563762665 0.0672121454252741
12.5032303147018 0.222837137147927
12.5237042531371 0.250872628152722
12.5441781915724 0.248974868439664
12.5646521300077 0.300477191342082
12.5851260684431 0.161890013526644
12.6056000068784 0.274619584993352
12.6260739453137 0.28580132240887
12.646547883749 0.324341475773199
12.6670218221843 0.228781711753004
12.6874957606196 0.289486613681623
12.707969699055 0.216091598225717
12.7284436374903 0.162242498718624
12.7489175759256 0.247730981827008
12.7693915143609 0.131411214217536
12.7898654527962 0.214324862556875
12.8103393912315 0.169649010178359
12.8308133296669 0.145821157081986
12.8512872681022 0.138935053267758
12.8717612065375 0.0851886154023411
12.8922351449728 0.0965610101524019
12.9127090834081 0.24727098751794
12.9331830218434 0.137578964165623
12.9536569602787 0.188057856762117
12.9741308987141 0.0276139153074215
12.9946048371494 0.124997139801537
13.0150787755847 0.169009613577797
13.03555271402 0.0580888366362013
13.0560266524553 0.19848480897675
13.0765005908906 0.10452044726611
13.096974529326 0.179841584837613
13.1174484677613 0.0520523883579282
13.1379224061966 0.206829941160387
13.1583963446319 0.0439138265783243
13.1788702830672 0.0906477946117388
13.1993442215025 0.0775005952606311
13.2198181599379 0.0799930618583344
13.2402920983732 0.148906444404849
13.2607660368085 0.0459594929001739
13.2812399752438 0.0992772073443104
13.3017139136791 0.129172087737257
13.3221878521144 0.136946217412348
13.3426617905498 0.121297513036251
13.3631357289851 0.0874343079422975
13.3836096674204 0.172075352130488
13.4040836058557 0.00282481226749098
13.424557544291 -0.0218798116466958
13.4450314827263 0.0667114803879278
13.4655054211617 -0.131140894961971
13.485979359597 0.151490145636942
13.5064532980323 0.026583768851332
13.5269272364676 -0.0722662753187997
13.5474011749029 0.0906170964598787
13.5678751133382 0.0438797175207024
13.5883490517735 0.0179903378636701
13.6088229902089 -0.114655209177885
13.6292969286442 0.0665159930627048
13.6497708670795 0.0536914445854388
13.6702448055148 0.0565065620569833
13.6907187439501 0.0215759288106727
13.7111926823854 0.0100974615131726
13.7316666208208 0.0194669934978178
13.7521405592561 -0.0987529752353939
13.7726144976914 0.00569797198020527
13.7930884361267 -0.0538989148553832
13.813562374562 0.0609980309245053
13.8340363129973 0.0144513093198708
13.8545102514327 0.0512525869973808
13.874984189868 -0.027816886042964
13.8954581283033 -0.0300487764678317
13.9159320667386 -0.00101600094388843
13.9364060051739 0.123083523862199
13.9568799436092 0.0974581312837648
13.9773538820446 -0.13909009534586
13.9978278204799 -0.0696340726933382
14.0183017589152 0.0375469315208097
14.0387756973505 -0.094840731649565
14.0592496357858 0.00716127112887222
14.0797235742211 0.0102196065227864
14.1001975126565 -0.0387907254678224
14.1206714510918 0.0124740251570477
14.1411453895271 -0.0560382249359379
14.1616193279624 0.108537107586553
14.1820932663977 0.0882312727245225
14.202567204833 -0.0192994795220307
14.2230411432683 -0.00181556581977249
14.2435150817037 -0.0403065695020368
14.263989020139 -0.0358141572354906
14.2844629585743 0.0116616709798669
14.3049368970096 -0.0254832515226315
14.3254108354449 0.199105241923681
14.3458847738802 0.0356875679854718
14.3663587123156 -0.106882106670593
14.3868326507509 0.0630628846221519
14.4073065891862 0.0468246251970426
14.4277805276215 0.0201843650540772
14.4482544660568 -0.0142537291400773
14.4687284044921 0.0854374259479114
14.4892023429275 -0.0466275863486212
14.5096762813628 0.0739262339703242
14.5301502197981 0.0629843035714135
14.5506241582334 0.0989320391213138
14.5710980966687 0.025519440620025
14.591572035104 0.0120173414008802
14.6120459735394 0.0245715747972142
14.6325199119747 0.0527654741423582
14.65299385041 0.00805737276964669
14.6734677888453 -0.00278189598758738
14.6939417272806 -0.0162106654626766
14.7144156657159 -0.0387393523222883
14.7348896041512 0.0832778767669105
14.7553635425866 0.0829139384715876
14.7758374810219 0.0656375827917421
14.7963114194572 0.0718133930607072
14.8167853578925 0.105347619278484
14.8372592963278 -0.0342805718882619
14.8577332347631 -0.0046232637728636
14.8782071731985 0.0367674602913457
14.8986811116338 0.0104645169710325
14.9191550500691 0.010217906266198
14.9396289885044 -0.0538161218231603
14.9601029269397 -0.0696584006303738
14.980576865375 0.0530158137009908
15.0010508038104 0.0702359439811664
15.0215247422457 0.0653353235434864
15.041998680681 0.0305014523879508
15.0624726191163 0.0633905805145583
15.0829465575516 -0.045632708743355
15.1034204959869 0.0172336679475427
15.1238944344223 0.0801147105872504
15.1443683728576 0.047958335842436
15.1648423112929 0.0587853770464326
15.1853162497282 0.0761375008659075
15.2057901881635 -0.0523290426991414
15.2262641265988 0.0158336630179559
15.2467380650342 -0.0188535486494708
15.2672120034695 0.0936093222985805
15.2876859419048 0.0810868591954437
15.3081598803401 0.118058228707784
15.3286338187754 0.285252597502268
15.3491077572107 0.167305382245565
15.369581695646 0.156143666271004
15.3900556340814 0.217913282911922
15.4105295725167 0.277093398834984
15.431003510952 0.29462151404019
15.4514774493873 0.425445545194207
15.4719513878226 0.336232158963703
15.4924253262579 0.261356355348675
15.5128992646933 0.347953551015791
15.5333732031286 0.360346662631719
15.5538471415639 0.213900273529791
15.5743210799992 0.308353967043341
15.5947950184345 0.216624409839035
15.6152689568698 0.318919935250207
15.6357428953052 0.309250959943523
15.6562168337405 0.23319040058565
15.6766907721758 0.383707007176588
15.6971647106111 0.181373696383003
15.7176386490464 0.242075884871563
15.7381125874817 0.146542739308935
15.7585865259171 0.121336759695116
15.7790604643524 0.101353779363443
15.7995344027877 0.193364631647247
15.820008341223 0.161692233213195
15.8404822796583 -0.0131946659387121
15.8609562180936 0.162193517524858
15.8814301565289 -0.00354946639609377
15.9019040949643 0.148430548965099
15.9223780333996 0.132456480275102
15.9428519718349 0.0995699942005821
15.9633259102702 0.0588856740748733
15.9837998487055 -0.0429818967686901
16.0042737871408 0.139019365003224
16.0247477255762 -0.0253188739427177
16.0452216640115 0.0824929697268177
16.0656956024468 -0.0310346873215024
16.0861695408821 -0.0325685117543442
16.1066434793174 0.0713810797616246
16.1271174177527 -0.0980921627735953
16.1475913561881 -0.0696340726933382
16.1680652946234 -0.0673392589239339
16.1885392330587 -0.0428943625390517
16.209013171494 0.019325616461308
16.2294871099293 -0.121564738589521
16.2499610483646 0.0409449889751268
16.2704349868 -0.00877020084474722
16.2909089252353 -0.0324290580491438
16.3113828636706 -0.0365419993047285
16.3318568021059 0.00493264205516297
16.3523307405412 -0.00305721730280029
16.3728046789765 0.0371446726213804
16.3932786174119 -0.0137846048389609
16.4137525558472 -0.0412617163504914
16.4342264942825 0.0146091714201226
16.4547004327178 0.0965363918062137
16.4751743711531 0.052176194807783
16.4956483095884 0.0273619137581633
16.5161222480237 0.134072715324021
16.5365961864591 0.0845481828386889
16.5570701248944 0.031132066302169
16.5775440633297 0.0272097823811266
16.598018001765 0.0831979977422286
16.6184919402003 0.0662842123854746
16.6389658786356 0.0676142596441984
16.659439817071 0.0923964728517328
16.6799137555063 0.055995435341412
16.7003876939416 0.0834111471132353
16.7208616323769 0.106935274833869
16.7413355708122 0.0914115685033146
16.7618095092475 0.203506694788238
16.7822834476829 0.145043570355305
16.8027573861182 0.177740945204517
16.8232313245535 0.22217173600254
16.8437052629888 0.176773442749373
16.8641792014241 0.167848148778351
16.8846531398594 0.199302104089473
16.9051270782948 0.108374892016073
16.9256010167301 0.120326929224817
16.9460749551654 0.0906269657157051
16.9665488936007 0.0830770848220714
16.987022832036 0.0560106198772488
17.0074967704713 0.103177570881237
17.0279707089067 0.0605154378340353
17.048444647342 0.170211720735646
17.0689185857773 0.0976310029194001
17.0893925242126 0.0380857843852986
17.1098664626479 0.0657948151333416
17.1303404010832 -0.00934607150313704
17.1508143395185 0.0196943744758613
17.1712882779539 -0.0905734302629959
17.1917622163892 0.0309442642802908
17.2122361548245 0.0470078747723894
17.2327100932598 0.0188153178799642
17.2531840316951 0.0713665936030177
17.2736579701304 0.0419012852748821
17.2941319085658 0.0306798095622236
17.3146058470011 -0.0287040835349566
17.3350797854364 0.104635022650007
17.3555537238717 0.0374679614504481
17.376027662307 0.0471384828663686
17.3965016007423 0.0828653368977648
17.4169755391777 0.0144401902113058
17.437449477613 0.0762380428069913
17.4579234160483 0.0820609780181543
17.4783973544836 0.129565245844795
17.4988712929189 0.0559904296202469
17.5193452313542 0.00456569601117662
17.5398191697896 0.127634795017583
17.5602931082249 0.0905623099728015
17.5807670466602 0.028764907543497
17.6012409850955 -0.044736578936996
17.6217149235308 0.0940161838646549
17.6421888619661 0.0895544459484499
17.6626628004014 0.120263623981057
17.6831367388368 0.150987467962474
17.7036106772721 0.0996947278927021
17.7240846157074 0.134354153771741
17.7445585541427 0.0896011622662578
17.765032492578 -0.0866475799570807
17.7855064310133 0.105607927101725
17.8059803694487 0.170273933442675
17.826454307884 0.154225439065769
17.8469282463193 0.0340249439710076
17.8674021847546 0.0206099481583899
17.8878761231899 0.107470034961251
17.9083500616252 0.113615621046256
17.9288240000606 0.195296706413405
17.9492979384959 0.075169541062698
17.9697718769312 0.0488070416608029
17.9902458153665 0.134438374874385
18.0107197538018 0.110709374036778
18.0311936922371 -0.0380049608520179
18.0516676306725 0.0906391202079968
18.0721415691078 0.102110367216823
18.0926155075431 0.131825446841127
18.1130894459784 0.196711442414241
18.1335633844137 -0.0053149793971663
18.154037322849 0.058298264740237
18.1745112612844 0.141457424826451
18.1949851997197 0.133485417528143
18.215459138155 0.20104890951198
18.2359330765903 -0.0165291825553733
18.2564070150256 0.0536678079927517
18.2768809534609 0.203306547823021
18.2973548918962 0.0365537036021015
18.3178288303316 0.0377842753299928
18.3383027687669 0.158821179673362
18.3587767072022 0.177008166632208
18.3792506456375 -0.00140476379346754
18.3997245840728 0.189988638396334
18.4201985225081 0.130094623201614
18.4406724609435 0.00511110728903708
18.4611463993788 0.123631840658605
18.4816203378141 0.105448489976984
18.5020942762494 0.0898839719108406
18.5225682146847 0.247511203126841
18.54304215312 0.11088226695832
18.5635160915554 0.0940596634052762
18.5839900299907 0.142355892467711
18.604463968426 -0.0046457125210444
18.6249379068613 -0.0188201515609885
18.6454118452966 0.105040908681212
18.6658857837319 -0.0288958651277764
18.6863597221673 -0.00526588965462116
18.7068336606026 -0.0532358315659875
18.7273075990379 0.0915172258047896
18.7477815374732 0.0605036991243786
18.7682554759085 0.174036088392778
18.7887294143438 0.033676893609988
18.8092033527792 0.136821948109343
18.8296772912145 0.174877501890843
18.8501512296498 -0.0643960283788476
18.8706251680851 0.0400951073002731
18.8910991065204 0.0130904922615391
18.9115730449557 0.0538088765049487
18.932046983391 -0.0226455733028308
18.9525209218264 -0.0313770238284654
18.9729948602617 -0.0687396417386226
18.993468798697 -0.0181025155285406
19.0139427371323 0.0039034432970193
19.0344166755676 0.0636844847380567
19.0548906140029 -0.0197489745387616
19.0753645524383 0.0869363987998977
19.0958384908736 0.0465010214207013
19.1163124293089 -0.100690523343018
19.1367863677442 -0.00828406882459154
19.1572603061795 0.045074551642645
19.1777342446148 0.173968671392026
19.1982081830502 0.114075373756885
19.2186821214855 0.137530075403888
19.2391560599208 0.0750619429997013
19.2596299983561 0.043858476544326
19.2801039367914 -0.042017823962238
19.3005778752267 -0.0211086251866579
19.3210518136621 -0.053570177128933
19.3415257520974 -0.027423313122398
19.3619996905327 0.0872798834996154
19.382473628968 0.0392373294037731
19.4029475674033 -0.0569676420765917
19.4234215058386 0.108560802391855
19.4438954442739 -0.116521087190888
19.4643693827093 0.0295054391751797
19.4848433211446 0.0596612148233922
19.5053172595799 0.178373323087082
19.5257911980152 0.129131347299583
19.5462651364505 0.0161019541275613
19.5667390748858 0.0749622269043511
19.5872130133212 0.133837165629952
19.6076869517565 -0.0143044796956366
19.6281608901918 -0.00878562573908104
19.6486348286271 -0.0813771058337136
19.6691087670624 0.00964529161673022
19.6895827054977 0.065526105015985
19.7100566439331 0.165692417697384
19.7305305823684 0.0210817296609265
19.7510045208037 0.104350290906615
19.771478459239 0.063935601434447
19.7919523976743 0.131608494577756
19.8124263361096 0.162837720336543
19.832900274545 0.212310778710808
19.8533742129803 0.187579753033884
19.8738481514156 0.171977976639105
19.8943220898509 0.14597419952647
19.9147960282862 0.228058005029312
19.9352699667215 0.237239809814298
19.9557439051569 0.148780030548096
19.9762178435922 -0.00476924943596302
19.9966917820275 0.0435190531954568
20.0171657204628 0.177759521775687
20.0376396588981 0.0320667396380618
20.0581135973334 0.146805290115914
20.0785875357687 -0.00146232679075542
20.0990614742041 0.0495034722513856
20.1195354126394 0.190327687242338
20.1400093510747 0.128041568182101
20.16048328951 0.132176365070675
20.1809572279453 0.129815411241393
20.2014311663806 0.238146206694256
20.221905104816 0.162897918095929
20.2423790432513 0.357195545446414
20.2628529816866 0.11400783874571
20.2833269201219 0.359116047993816
20.3038008585572 0.260488923190734
20.3242747969925 0.365001464336462
20.3447487354279 0.101039088097669
20.3652226738632 0.229018461141019
20.3856966122985 0.0705541667998468
20.4061705507338 0.19465662174082
20.4266444891691 0.174242492630603
20.4471184276044 0.175978446135864
20.4675923660398 0.283197815589936
20.4880663044751 0.10918185099282
20.5085402429104 0.028930552344514
20.5290141813457 0.177860586311686
20.549488119781 0.148419869561002
20.5699620582163 0.215347985425795
20.5904359966516 -0.0562508994272668
20.610909935087 0.0133107150018161
20.6313838735223 0.0880953287130422
20.6518578119576 0.138155025039747
20.6723317503929 0.163489803981929
20.6928056888282 -0.0481399177937449
20.7132796272635 0.0449325263793918
20.7337535656989 0.0768217198346743
20.7542275041342 0.0618505792387665
20.7747014425695 0.145852437925003
20.7951753810048 0.0527856292267179
20.8156493194401 0.0404626531439103
20.8361232578754 -0.0109081569900864
20.8565971963108 0.172110698824728
20.8770711347461 0.106446303921686
20.8975450731814 -0.000870091699210818
20.9180190116167 0.0858385952953697
20.938492950052 0.0605827815720943
20.9589668884873 0.14081038379763
20.9794408269227 -0.0315515146946894
20.999914765358 0.0734450027618014
21.0203887037933 0.0612686861671037
21.0408626422286 0.12072161885455
21.0613365806639 0.0994600508241406
21.0818105190992 0.134202732075876
21.1022844575346 0.0830225792764221
21.1227583959699 0.0787320924257786
21.1432323344052 0.0119562715239474
21.1637062728405 0.0519659499042584
21.1841802112758 -0.0291034557666174
21.2046541497111 0.177602221177983
21.2251280881464 0.0913538140713954
21.2456020265818 0.088453406246952
21.2660759650171 0.00223433103798554
21.2865499034524 0.12306117177783
21.3070238418877 0.112392261799819
21.327497780323 0.0210088511039532
21.3479717187583 0.00385885635689753
21.3684456571937 0.0153693608919871
21.388919595629 0.000852864709219858
21.4093935340643 0.0162989511419305
21.4298674724996 0.092957620190119
21.4503414109349 0.043328871853785
21.4708153493702 -0.0427435438670711
21.4912892878056 0.0105216230275502
21.5117632262409 0.105468122537649
21.5322371646762 0.0741272046632266
21.5527111031115 0.0232697027376134
21.5731850415468 -0.0666356332391875
21.5936589799821 -0.0683997094471374
21.6141329184175 0.20198629696039
21.6346068568528 0.129939052650062
21.6550807952881 -0.00589560904478725
21.6755547337234 0.0900552285425067
21.6960286721587 0.101385315411945
21.716502610594 0.160907151563528
21.7369765490294 0.108464486997256
21.7574504874647 -0.0116718449535402
21.7779244259 0.153362739044475
21.7983983643353 0.0879432389913024
21.8188723027706 0.191809238220273
21.8393462412059 0.221471153398055
21.8598201796412 0.0610435678579817
21.8802941180766 0.125891064933385
21.9007680565119 0.237628227957601
21.9212419949472 0.14755714026396
21.9417159333825 0.225469468519131
21.9621898718178 0.0481881293897786
21.9826638102531 0.180817289542571
22.0031377486885 0.24184653231084
22.0236116871238 0.0945571076945875
22.0440856255591 0.166032349027147
22.0645595639944 0.178928506308516
22.0850335024297 0.198349746205363
22.105507440865 0.129243985384355
22.1259813793004 0.259371640512157
22.1464553177357 0.334826461588771
22.166929256171 0.139462615280862
22.1874031946063 0.214946768255098
22.2078771330416 0.194091420511477
22.2283510714769 0.122469488716668
22.2488250099123 0.00528930620400292
22.2692989483476 0.222759206306816
22.2897728867829 0.270972939025106
22.3102468252182 0.208524254358874
22.3307207636535 0.185152735641453
22.3511947020888 0.307629216206176
22.3716686405241 0.198349529386377
22.3921425789595 0.176324091848723
22.4126165173948 0.194677903593213
22.4330904558301 0.15315054795318
22.4535643942654 0.304346191595291
22.4740383327007 0.187327334519547
22.494512271136 0.161468976725947
22.5149862095714 0.366094034881158
22.5354601480067 0.249119175651848
22.555934086442 0.22330481570468
22.5764080248773 0.331619705039658
22.5968819633126 0.325365926990114
22.6173559017479 0.308710148222713
22.6378298401833 0.28295445207079
22.6583037786186 0.274140505201012
22.6787777170539 0.357789140946711
22.6992516554892 0.196660775974554
22.7197255939245 0.286849160284542
22.7401995323598 0.30673971054334
22.7606734707952 0.406072010084284
22.7811474092305 0.233283558907372
22.8016213476658 0.285770190345936
22.8220952861011 0.322646487733312
22.8425692245364 0.489745784402833
22.8630431629717 0.32352641368783
22.8835171014071 0.300550875588306
22.9039910398424 0.337485836770926
22.9244649782777 0.347091713902357
22.944938916713 0.3801497569826
22.9654128551483 0.488743299344985
22.9858867935836 0.361674424322848
23.0063607320189 0.332276465249524
23.0268346704543 0.49429942212501
23.0473086088896 0.401128711615973
23.0677825473249 0.422556000389082
23.0882564857602 0.455716705111
23.1087304241955 0.396444159115063
23.1292043626308 0.432238362401271
23.1496783010662 0.400338898302955
23.1701522395015 0.501266600153452
23.1906261779368 0.499344384619425
23.2111001163721 0.487020168367544
23.2315740548074 0.511168951397806
23.2520479932427 0.571790733710213
23.2725219316781 0.48008343197143
23.2929958701134 0.475630379514792
23.3134698085487 0.748535743006965
23.333943746984 0.578747439114616
23.3544176854193 0.545692551171078
23.3748916238546 0.549110662509683
23.39536556229 0.487439273130434
23.4158395007253 0.522136716366663
23.4363134391606 0.551640492218367
23.4567873775959 0.543398517352217
23.4772613160312 0.537775375101545
23.4977352544665 0.51133356546635
23.5182091929019 0.4862085051133
23.5386831313372 0.500160610709059
23.5591570697725 0.501106548920298
23.5796310082078 0.483837986413681
23.6001049466431 0.41840700652254
23.6205788850784 0.363407359246879
23.6410528235137 0.445141127920027
23.6615267619491 0.522983312541987
23.6820007003844 0.551360996446091
23.7024746388197 0.437826262965673
23.722948577255 0.476649945434066
23.7434225156903 0.398300793851269
23.7638964541256 0.455382974883951
23.784370392561 0.435656905198776
23.8048443309963 0.35995591812908
23.8253182694316 0.462655013674861
23.8457922078669 0.375264608502786
23.8662661463022 0.371222202612856
23.8867400847375 0.449225712671737
23.9072140231729 0.415264722012761
23.9276879616082 0.473766313969263
23.9481619000435 0.386449238541244
23.9686358384788 0.297844745728701
23.9891097769141 0.395452835531636
24.0095837153494 0.349846424616717
24.0300576537848 0.390192179650608
24.0505315922201 0.22742760063331
24.0710055306554 0.390198520898156
24.0914794690907 0.42277577377848
24.111953407526 0.274378109274281
24.1324273459613 0.278338860718893
24.1529012843966 0.35783511144565
24.173375222832 0.356616861454551
24.1938491612673 0.259059110745597
24.2143230997026 0.32427644265212
24.2347970381379 0.398623023840787
24.2552709765732 0.260744687644932
24.2757449150085 0.349443517397888
24.2962188534439 0.357427846432988
24.3166927918792 0.348499758083566
24.3371667303145 0.430732169016289
24.3576406687498 0.255166745897822
24.3781146071851 0.298365988728166
24.3985885456204 0.251736147507322
24.4190624840558 0.280641805568621
24.4395364224911 0.279614212912065
24.4600103609264 0.299434619537653
24.4804842993617 0.265884275445385
24.500958237797 0.126879847301929
24.5214321762323 0.250910918440617
24.5419061146677 0.127560822194782
24.562380053103 0.199537891897759
24.5828539915383 0.199915044216213
24.6033279299736 0.180775612483479
24.6238018684089 0.131702930032887
24.6442758068442 0.177696996864441
24.6647497452796 0.0987057296448057
24.6852236837149 0.188999961707315
24.7056976221502 0.0826942763853014
24.7261715605855 0.1326532570121
24.7466454990208 0.0302831535877082
24.7671194374561 0.202667299445461
24.7875933758914 0.0899098612520248
24.8080673143268 0.115187922340733
24.8285412527621 0.0779806493782518
24.8490151911974 0.167090125697917
24.8694891296327 0.0218392679663908
24.889963068068 0.0992593261836761
24.9104370065033 0.0412773836831062
24.9309109449387 0.130445523798014
24.951384883374 0.257388746528399
24.9718588218093 0.0106487185409279
24.9923327602446 0.112881689835603
25.0128066986799 0.182577243745753
25.0332806371152 0.0556728802713833
25.0537545755506 0.139720682745822
25.0742285139859 0.105293567835741
25.0947024524212 0.0135894522078028
25.1151763908565 0.0247645858620089
25.1356503292918 0.0281418854650268
25.1561242677271 0.0237213510168548
25.1765982061625 0.0844196491841611
25.1970721445978 -0.0749194700330555
25.2175460830331 0.147266493365206
25.2380200214684 0.111654622712278
25.2584939599037 0.104703251341495
25.278967898339 0.0222457125861899
25.2994418367743 0.094750756446361
25.3199157752097 0.108676716255344
25.340389713645 0.0887631753464717
25.3608636520803 0.16261430038641
25.3813375905156 0.00731342470849228
25.4018115289509 0.147600131646052
25.4222854673862 -0.0558484954675764
25.4427594058216 0.0428008767009382
25.4632333442569 0.0203711648182652
25.4837072826922 0.05134153555107
25.5041812211275 0.0133161555660184
25.5246551595628 0.0573366915297777
25.5451290979981 0.012830226775681
25.5656030364335 -0.0121303220296038
25.5860769748688 -0.0592116215527447
25.6065509133041 -0.0307574217937416
25.6270248517394 0.10187811058074
25.6474987901747 0.0157783089040318
25.66797272861 0.0742244231761342
25.6884466670454 0.055862286730382
25.7089206054807 0.0518377329001072
25.729394543916 0.0204840950186429
25.7498684823513 -0.019969460247343
25.7703424207866 0.155737483768815
25.7908163592219 0.022865343733784
25.8112902976573 -0.00452338035243649
25.8317642360926 -0.100907855156512
25.8522381745279 0.00344108248777353
25.8727121129632 0.0674401027475375
25.8931860513985 0.0129642056227786
25.9136599898338 -0.00373660888650251
25.9341339282691 0.21916057588636
25.9546078667045 0.0371245099413677
25.9750818051398 0.0855718599451856
25.9955557435751 0.127523459231149
26.0160296820104 -0.00759360886741067
26.0365036204457 0.0500123223161744
26.056977558881 0.0920079194485699
26.0774514973164 -0.0977526508035567
26.0979254357517 0.107032694893128
26.118399374187 0.0813639565386226
26.1388733126223 0.0622203007995963
26.1593472510576 0.0912683943427131
26.1798211894929 0.0369978205013082
26.2002951279283 -0.000331004057952722
26.2207690663636 -0.00248891266840179
26.2412430047989 -0.0293717386633743
26.2617169432342 0.146885101290465
26.2821908816695 0.130448273859781
26.3026648201048 0.0241823623779087
26.3231387585402 0.0650665335115139
26.3436126969755 0.240079953927264
26.3640866354108 0.0817747069584911
26.3845605738461 0.114890375938529
26.4050345122814 0.0126040442007116
26.4255084507167 0.122571961745038
26.4459823891521 -0.0656225380951572
26.4664563275874 0.113385128013458
26.4869302660227 0.0528241267375513
26.507404204458 0.00269445807712199
26.5278781428933 -0.0383059613011629
26.5483520813286 0.0470103686026966
26.5688260197639 0.0945809477887001
26.5892999581993 -0.00106297374315201
26.6097738966346 0.0217973540071403
26.6302478350699 0.130609847706244
26.6507217735052 0.122249507354158
26.6711957119405 0.0409871662842169
26.6916696503758 -0.0311459255035804
26.7121435888112 0.0803293986574336
26.7326175272465 0.0798402221005916
26.7530914656818 -0.0365197051741055
26.7735654041171 0.0294267001666748
26.7940393425524 0.0758565214562661
26.8145132809877 0.0220405920280018
26.8349872194231 0.041155995215215
26.8554611578584 -0.0464847689820944
26.8759350962937 -0.0885379505639259
26.896409034729 0.0467528674282183
26.9168829731643 0.0166937680358399
26.9373569115996 0.0426389179256059
26.957830850035 0.0672966504308494
26.9783047884703 0.0581148822182378
26.9987787269056 -0.0213647200455633
27.0192526653409 0.0124515936394469
27.0397266037762 0.0423763232732677
27.0602005422115 -0.00190303114410018
27.0806744806468 -0.0448656362793236
27.1011484190822 -0.0240114921324031
27.1216223575175 -0.0760593487033381
27.1420962959528 0.0815428773412048
27.1625702343881 0.0646806026678917
27.1830441728234 0.0439267439433895
27.2035181112587 0.0570417178343652
27.2239920496941 -0.00404739232584861
27.2444659881294 0.0650864967960825
27.2649399265647 -0.131389948133176
27.285413865 -0.0023308937802895
27.3058878034353 0.0759615765214079
27.3263617418706 0.120414546105249
27.346835680306 -0.00829490169543146
27.3673096187413 0.0348853164526983
27.3877835571766 0.169226033882973
27.4082574956119 -0.042772749404608
27.4287314340472 0.121545216589955
27.4492053724825 -0.000580484800004388
27.4696793109179 -0.00810818690781945
27.4901532493532 -0.12369413973349
27.5106271877885 0.00936468729691997
27.5311011262238 -0.0385514030571925
27.5515750646591 0.0385471725375059
27.5720490030944 0.00498333074768231
27.5925229415298 0.0183091549066696
27.6129968799651 0.118889228347801
27.6334708184004 -0.0565576989289234
27.6539447568357 0.0674892064098302
27.674418695271 0.00665494436406178
27.6948926337063 0.0421895149337703
27.7153665721416 0.131124168118957
27.735840510577 0.0742401539196211
27.7563144490123 -0.00346252766423749
27.7767883874476 0.0152036233673818
27.7972623258829 -0.00778222631885406
27.8177362643182 0.0213299232770536
27.8382102027535 -0.0966786778448938
27.8586841411889 0.0444419703153032
27.8791580796242 0.00588978442431065
27.8996320180595 -0.0665019021845374
27.9201059564948 0.0369023271554254
27.9405798949301 -0.189105860889134
27.9610538333654 0.0210985336817844
27.9815277718008 -0.0277969891318195
28.0020017102361 0.0235825706700541
28.0224756486714 0.00206012975407166
28.0429495871067 0.0912294381202341
28.063423525542 -0.00708658756479297
28.0838974639773 -0.0129400306343417
28.1043714024127 -0.0344038077550799
28.124845340848 -0.0141862522603402
28.1453192792833 -0.0616623641501231
28.1657932177186 0.0406157732422381
28.1862671561539 0.0491585765834106
28.2067410945892 0.0264660458733945
28.2272150330245 0.0584756811121885
28.2476889714599 0.00977081563312732
28.2681629098952 0.00795561610287709
28.2886368483305 -0.0589490841452287
28.3091107867658 0.092910881555476
28.3295847252011 -0.0911519867950079
28.3500586636364 0.0386018941366526
28.3705326020718 -0.0152233089828764
28.3910065405071 0.0156015705130725
28.4114804789424 0.0646702826244998
28.4319544173777 0.0239099106847371
28.452428355813 -0.0116274619728811
28.4729022942483 0.0283706646516455
28.4933762326837 0.00588345722498218
28.513850171119 0.0784629990804642
28.5343241095543 -0.0182136264485768
28.5547980479896 0.0804369139711936
28.5752719864249 0.0840500370064414
28.5957459248602 0.0941882426571667
28.6162198632956 -0.00503388574329655
28.6366938017309 -0.00918926486161586
28.6571677401662 -0.0536945613644573
28.6776416786015 0.154418974748179
28.6981156170368 -0.0111507398570407
28.7185895554721 -0.0139453718467828
28.7390634939075 0.130410078778953
28.7595374323428 0.0312906120201664
28.7800113707781 0.0103108112101906
28.8004853092134 -0.0536230736509737
28.8209592476487 -0.0294908206058664
28.841433186084 0.0623644317213858
28.8619071245193 0.0578801833307825
28.8823810629547 0.0482022675556562
28.90285500139 0.0177056843960077
28.9233289398253 0.00805710051850372
28.9438028782606 -0.0497539007435228
28.9642768166959 0.00833518060992855
28.9847507551312 -0.0181964887544757
29.0052246935666 0.0321094244965976
29.0256986320019 -0.0256429129701852
29.0461725704372 0.0351089988451769
29.0666465088725 -0.0134994233906505
29.0871204473078 -0.0152181796776665
29.1075943857431 -0.0169222700158715
29.1280683241785 -0.0121012777385987
29.1485422626138 0.0422135471541512
29.1690162010491 0.0952409546623789
29.1894901394844 0.0532309447860846
29.2099640779197 -0.0122018991413992
29.230438016355 -0.00340132712007168
29.2509119547904 -0.00109650581660015
29.2713858932257 -0.0183082685643172
29.291859831661 -0.0511303653632238
29.3123337700963 0.00069762045334798
29.3328077085316 0.0434256888853968
29.3532816469669 0.00934550659959044
29.3737555854023 0.0117383235959281
29.3942295238376 -0.0444479434589233
29.4147034622729 -0.0433278778982973
29.4351774007082 -0.0369848130555264
29.4556513391435 -0.0527624989306115
29.4761252775788 0.000306954060477871
29.4965992160141 0.0468806563337107
29.5170731544495 0.0322711078890889
29.5375470928848 -0.0513341912733889
29.5580210313201 0.0395543421796107
29.5784949697554 0.131759624914755
29.5989689081907 0.0495004069320437
29.619442846626 0.0857454382314762
29.6399167850614 0.0217447188130535
29.6603907234967 0.0697378320101079
29.680864661932 0.00706852782264056
29.7013386003673 0.0485805562506507
29.7218125388026 0.0250030839608049
29.7422864772379 0.0183673609531034
29.7627604156733 0.0364858872275464
29.7832343541086 -0.0495475872158657
29.8037082925439 0.0714648542895322
29.8241822309792 0.088325295077075
29.8446561694145 -0.0119870981865717
29.8651301078498 0.0504755911652599
29.8856040462852 0.000973779799235519
29.9060779847205 0.0413303843820216
29.9265519231558 -0.0107462617530474
29.9470258615911 0.032243841394028
29.9674998000264 -0.0770951395100856
29.9879737384617 0.0622784622012782
30.008447676897 0.077968813194786
30.0289216153324 0.0402884134704387
30.0493955537677 0.00522684636156878
30.069869492203 0.0977841118681764
30.0903434306383 -0.0192793733430712
30.1108173690736 0.131900974061158
30.1312913075089 0.121637654080866
30.1517652459443 0.00722233338271749
30.1722391843796 0.0751133453000472
30.1927131228149 -0.0314601435004791
30.2131870612502 -0.0325502163521945
30.2336609996855 0.0666347934115676
30.2541349381208 -0.0164571975425258
30.2746088765562 0.0866633941188586
30.2950828149915 -0.00811801493761299
30.3155567534268 0.0364381586213938
30.3360306918621 0.139602748129211
30.3565046302974 0.0826257535858388
30.3769785687327 0.0412884249912784
30.3974525071681 0.055955345678862
30.4179264456034 -0.0608734843514105
30.4384003840387 -0.011020981766205
30.458874322474 0.0297316034344788
30.4793482609093 -0.0453865620826939
30.4998221993446 0.0396661883489444
30.52029613778 -0.0510476452706059
30.5407700762153 -0.0721333082841442
30.5612440146506 0.0995040279844619
30.5817179530859 0.0628226968685457
30.6021918915212 0.0665206150347739
30.6226658299565 0.0520040324831461
30.6431397683918 0.109116699213663
30.6636137068272 0.0139002818929908
30.6840876452625 0.104896447187797
30.7045615836978 0.107365611764746
30.7250355221331 -0.02166097437616
30.7455094605684 0.0277125220984118
30.7659833990037 -0.00232639881153851
30.7864573374391 -0.0297464871060116
30.8069312758744 0.0483168405483263
30.8274052143097 0.127696917484808
30.847879152745 0.0104770770367684
30.8683530911803 0.0169698192042063
30.8888270296156 0.0703522273204547
30.909300968051 -0.0246881986144856
30.9297749064863 0.0612756247327182
30.9502488449216 -0.0285271359712669
30.9707227833569 0.0939243526068927
30.9911967217922 0.0393071738005291
31.0116706602275 0.0732463276096433
31.0321445986629 -0.00347693596576426
31.0526185370982 -0.00466470025902765
31.0730924755335 0.0748913680631864
31.0935664139688 0.0502954356675449
31.1140403524041 0.0374329192207143
31.1345142908394 0.00635590205602776
31.1549882292748 -0.0142897824931807
31.1754621677101 0.0692458655730885
31.1959361061454 0.160608679588168
31.2164100445807 0.0254236595520596
31.236883983016 0.0998887221314282
31.2573579214513 0.163951783992941
31.2778318598866 0.0613628451365986
31.298305798322 0.141080238895734
31.3187797367573 -0.0383022847296537
31.3392536751926 -0.0497013924062299
31.3597276136279 0.0129916098036671
31.3802015520632 0.0952305279623757
31.4006754904985 0.0889424454032282
31.4211494289339 -0.000664304540441529
31.4416233673692 0.0425561114646995
31.4620973058045 0.100114110085318
31.4825712442398 -0.00246947534525166
31.5030451826751 0.0381907718396557
31.5235191211104 0.102303184973374
31.5439930595458 0.103930264055904
31.5644669979811 0.0404678424205775
31.5849409364164 0.0317075867340626
31.6054148748517 0.0776494969963581
31.625888813287 -0.0391543434592017
31.6463627517223 0.018535648700716
31.6668366901577 0.0931673901427776
31.687310628593 -0.0444257857996824
31.7077845670283 0.00419362087333508
31.7282585054636 0.0593381101618302
31.7487324438989 -0.0183152346008639
31.7692063823342 -0.00611016341474691
31.7896803207695 0.0165262403868476
31.8101542592049 0.110791893470586
31.8306281976402 0.119134712503136
31.8511021360755 0.0754088641511641
31.8715760745108 0.0316976817480028
31.8920500129461 0.0752407486269859
31.9125239513814 -0.0296390185452204
31.9329978898168 0.0256521302313844
31.9534718282521 -0.0206045550431997
31.9739457666874 0.0828930089643605
31.9944197051227 0.0236448222540648
32.014893643558 0.10113005149258
32.0353675819933 0.0653486966799068
32.0558415204287 0.0855715911493777
32.076315458864 0.0953924849009926
32.0967893972993 0.0258009612680858
32.1172633357346 -0.00471339641601065
32.1377372741699 0.0337973285153705
32.1582112126052 0.0788331360622296
32.1786851510406 0.142112776224566
32.1991590894759 0.127282082335714
32.2196330279112 0.0330389710623396
32.2401069663465 -0.0442623909288908
32.2605809047818 -0.0486324203046433
32.2810548432171 0.0214005290849069
32.3015287816525 0.0953543944232678
32.3220027200878 0.12244792571044
32.3424766585231 0.0753373729464228
32.3629505969584 0.0699081527978833
32.3834245353937 0.111368598598155
32.403898473829 0.107270793680571
32.4243724122643 0.117510571378464
32.4448463506997 0.0834941816918353
32.465320289135 0.0768362079540179
32.4857942275703 0.0793074834983445
32.5062681660056 0.070074674991482
32.5267421044409 0.0868981991000972
32.5472160428762 0.0164968058241901
32.5676899813116 0.117985078497094
32.5881639197469 -0.0461369828811913
32.6086378581822 0.0280368716893347
32.6291117966175 0.119152475542005
32.6495857350528 0.0488244120101524
32.6700596734881 0.00585476442711119
32.6905336119235 -0.0318918838737856
32.7110075503588 0.0462615504407953
32.7314814887941 0.0827629840375204
32.7519554272294 0.11276866691639
32.7724293656647 0.00216401574406988
32.7929033041 0.0139698638538945
32.8133772425354 0.0479257945791969
32.8338511809707 0.0597609745866439
32.854325119406 0.0260379038762346
32.8747990578413 0.0144649157813033
32.8952729962766 0.0237399269685166
32.9157469347119 0.0121962707712067
32.9362208731472 0.0540526971893751
32.9566948115826 0.0334237895563543
32.9771687500179 0.0336428812054779
32.9976426884532 0.115907888803412
33.0181166268885 0.0119896456834909
33.0385905653238 0.0252735685123811
33.0590645037591 0.0229471572900819
33.0795384421945 0.0466770786832604
33.1000123806298 0.00531749935858339
33.1204863190651 0.121524669316051
33.1409602575004 0.0606631718889949
33.1614341959357 0.0584100904107507
33.181908134371 0.0171091748813175
33.2023820728064 -0.0254791580326377
33.2228560112417 0.0413221750022177
33.243329949677 0.0456381739858838
33.2638038881123 0.0460625889183612
33.2842778265476 0.0491058364663162
33.3047517649829 -0.037680000036918
33.3252257034183 0.0799759127419923
33.3456996418536 0.0674381581363805
33.3661735802889 0.0809567361462462
33.3866475187242 0.163500396771589
33.4071214571595 0.0898087233457436
33.4275953955948 0.0708192158687089
33.4480693340302 0.0036672910071518
33.4685432724655 0.104498782094405
33.4890172109008 0.00221993913047047
33.5094911493361 0.0327682621153462
33.5299650877714 0.154477084382367
33.5504390262067 0.0483359892648643
33.570912964642 0.00731372676283981
33.5913869030774 0.019691546876293
33.6118608415127 -0.034322217061443
33.632334779948 0.0848557682829654
33.6528087183833 0.0230588362428517
33.6732826568186 0.0172661534848819
33.6937565952539 0.0804985533423901
33.7142305336893 0.0695268691487088
33.7347044721246 0.00778860090383904
33.7551784105599 0.10231499860778
33.7756523489952 0.0835748122605318
33.7961262874305 0.0739638751954284
33.8166002258658 0.111242604079136
33.8370741643012 0.118588082244987
33.8575481027365 0.0816773930263164
33.8780220411718 0.0317605364231235
33.8984959796071 -0.0051208208979252
33.9189699180424 0.016606237729837
33.9394438564777 0.00188962897307721
33.9599177949131 0.0614064361651279
33.9803917333484 0.0232816593059895
34.0008656717837 0.0919423817289957
34.021339610219 -0.0294863965658536
34.0418135486543 0.080870324421441
34.0622874870896 0.0584292113575469
34.082761425525 0.0112631809091304
34.1032353639603 0.00708056640952481
34.1237093023956 -0.0465665488079363
34.1441832408309 -0.0331705058979248
34.1646571792662 0.102636036294231
34.1851311177015 0.0704884944351978
34.2056050561368 0.0787202018583091
34.2260789945722 0.111706158563564
34.2465529330075 0.0730921978842975
34.2670268714428 -0.0201945968461583
34.2875008098781 0.0375749410388633
34.3079747483134 0.0523903948726963
34.3284486867487 0.0867517646553397
34.3489226251841 0.0794611337201279
34.3693965636194 0.0187997520670604
34.3898705020547 -0.0770032136371963
34.41034444049 0.105854319940691
34.4308183789253 0.00357026946739003
34.4512923173606 0.0132800516095664
34.471766255796 0.0829003330338871
34.4922401942313 0.0470665304070186
34.5127141326666 0.0750494770622945
34.5331880711019 -0.00632791033361824
34.5536620095372 0.0737677015526126
34.5741359479725 -0.045340770612345
34.5946098864079 0.0933779231715082
34.6150838248432 0.039402949570839
34.6355577632785 0.060963475252314
34.6560317017138 0.00962200021593351
34.6765056401491 0.0194931077950309
34.6969795785844 0.0658372146562725
34.7174535170197 0.037977237466325
34.7379274554551 0.0322673428918552
34.7584013938904 0.0721450309328626
34.7788753323257 0.0208915515893482
34.799349270761 0.0516839881946445
34.8198232091963 0.0304077574154187
34.8402971476316 0.0508128592516703
34.860771086067 -0.0407465396299334
34.8812450245023 0.0486983107706069
34.9017189629376 0.0821682437866247
34.9221929013729 0.11044450941812
34.9426668398082 0.0593083576650937
34.9631407782435 0.0173014551942114
34.9836147166789 0.0104654686721399
35.0040886551142 0.135154564765546
35.0245625935495 -0.0318083398589033
35.0450365319848 -0.038600328534542
35.0655104704201 0.0353515154052975
35.0859844088554 0.0259846919606144
35.1064583472908 0.0257471177980755
35.1269322857261 -0.00181954041565224
35.1474062241614 0.000576383986097495
35.1678801625967 -0.00222135899667486
35.188354101032 -0.00240026936396953
35.2088280394673 0.0742584028842128
35.2293019779027 0.0233275744145405
35.249775916338 0.135171828560345
35.2702498547733 -0.00557341801170574
35.2907237932086 0.0294772513650536
35.3111977316439 0.0189696700239583
35.3316716700792 0.0761850879650072
35.3521456085145 -0.0671056614784664
35.3726195469499 0.0344099216935376
35.3930934853852 0.0812526708143524
35.4135674238205 0.0590996692173118
35.4340413622558 0.00961758356908216
35.4545153006911 0.02134808053633
35.4749892391264 -0.0150838398809447
35.4954631775618 -0.0189490110160744
35.5159371159971 0.069648400464273
35.5364110544324 0.0124271445600985
35.5568849928677 -0.0200398620619322
35.577358931303 0.0542786305981817
35.5978328697383 0.0687159558737731
35.6183068081737 0.0219700304315091
35.638780746609 0.0689887709380557
35.6592546850443 0.0613346773934134
35.6797286234796 0.0667160831309155
35.7002025619149 0.0278413214838953
35.7206765003502 0.0866374757856865
35.7411504387856 0.0217503793696214
35.7616243772209 0.0193779489023675
35.7820983156562 -0.0454798156160754
35.8025722540915 -0.0283138107007641
35.8230461925268 -0.0397789731699749
35.8435201309621 0.0542392803096254
35.8639940693974 0.0141576164047028
35.8844680078328 0.028778118448592
35.9049419462681 0.0655487031079587
35.9254158847034 0.0867089537161361
35.9458898231387 0.0466859536064577
35.966363761574 -0.0441036305544098
35.9868377000093 0.0135589512335341
36.0073116384447 0.0816528656369555
36.02778557688 0.0495010293225213
36.0482595153153 -0.00607364104310193
36.0687334537506 -0.0017378121265812
36.0892073921859 0.0208418494054174
36.1096813306212 -0.0451054897804395
36.1301552690566 -0.0268180165306666
36.1506292074919 0.057890372667917
36.1711031459272 0.0488634278153117
36.1915770843625 0.0580803155781839
36.2120510227978 0.0438743692898673
36.2325249612331 0.0283810056170282
36.2529988996685 0.0181106412263337
36.2734728381038 0.0625424427844499
36.2939467765391 0.00803057695804377
36.3144207149744 0.0160333770804488
36.3348946534097 0.0566029264849983
36.355368591845 0.0698433918383585
36.3758425302804 0.0974214398071964
36.3963164687157 0.115899570391512
36.416790407151 -0.030972216408695
36.4372643455863 0.0305039960732425
36.4577382840216 0.0932969578373242
36.4782122224569 -0.0326974977831165
36.4986861608922 0.0691872958785873
36.5191600993276 0.143743005489102
36.5396340377629 0.0451362977150946
36.5601079761982 0.0442005058898984
36.5805819146335 -0.0543768699864875
36.6010558530688 -0.00840832991406226
36.6215297915041 0.0610123761071744
36.6420037299395 0.0366977480772217
36.6624776683748 0.0527623693294133
36.6829516068101 -0.0236062601362506
36.7034255452454 0.0315501930135631
36.7238994836807 0.00208589544552074
36.744373422116 0.0247195971596237
36.7648473605514 0.0968471314892032
36.7853212989867 0.0478955817675941
36.805795237422 0.0588545313281295
36.8262691758573 0.0489948135041423
36.8467431142926 0.0469622616289662
36.8672170527279 0.00588187570260135
36.8876909911633 -0.0260692609416195
36.9081649295986 0.0357442683629703
36.9286388680339 0.0533016302830382
36.9491128064692 0.0930090748185837
36.9695867449045 0.0285645186362735
36.9900606833398 0.0591867117361078
37.0105346217752 0.0768027374514195
37.0310085602105 0.153027179115542
37.0514824986458 -0.0220357966048574
37.0719564370811 0.0125513102902206
37.0924303755164 0.12137183313411
37.1129043139517 0.0505195219268098
37.133378252387 0.00572354333498737
37.1538521908224 -0.0481723526413571
37.1743261292577 -0.00474361223475661
37.194800067693 0.00354354412065527
37.2152740061283 0.0300745330915444
37.2357479445636 0.0357868546779114
37.2562218829989 -0.0340069911202439
37.2766958214343 -0.0035257543029219
37.2971697598696 0.0425951484632112
37.3176436983049 0.027532800511489
37.3381176367402 0.0580580351752444
37.3585915751755 -0.0116624808788561
37.3790655136108 0.030610835682521
37.3995394520462 -0.0364761818072907
37.4200133904815 0.0839514666517083
37.4404873289168 0.0442375310595184
37.4609612673521 0.0592257614161396
37.4814352057874 0.00391615772157183
37.5019091442227 0.0475795533091481
37.5223830826581 0.023549281512202
37.5428570210934 0.0294815923307341
37.5633309595287 0.0106889857647434
37.583804897964 0.0179527118142302
37.6042788363993 0.112470687145862
37.6247527748346 0.0142949950929705
37.6452267132699 -0.0343868643444427
37.6657006517053 -0.0257623911663782
37.6861745901406 -0.00931075203950327
37.7066485285759 0.0787701363695168
37.7271224670112 -0.0310509759393192
37.7475964054465 -0.0210657556326777
37.7680703438818 0.0358091306227746
37.7885442823172 -0.0309992338396283
37.8090182207525 0.024602900980113
37.8294921591878 -0.0708219649180013
37.8499660976231 0.0538199184660284
37.8704400360584 -0.0272526988677975
37.8909139744937 0.00757476641385413
37.9113879129291 0.00205231431098385
37.9318618513644 -0.0607471385097424
37.9523357897997 0.000165991285009159
37.972809728235 0.0207292036952382
37.9932836666703 0.0465154153876115
38.0137576051056 0.0228371263621294
38.034231543541 0.0499547532854578
38.0547054819763 0.0835974628242644
38.0751794204116 0.0534527549785486
38.0956533588469 0.0480622964149768
38.1161272972822 0.0244573371335495
38.1366012357175 -0.0238725395324002
38.1570751741529 0.0163539164171278
38.1775491125882 0.0422721216488
38.1980230510235 -0.0034095905040501
38.2184969894588 0.0616004466252442
38.2389709278941 0.0211563997033497
38.2594448663294 -0.00885631460306757
38.2799188047647 0.00411438703932632
38.3003927432001 -0.0440981620361356
38.3208666816354 -0.00863242008152687
38.3413406200707 0.030754237821893
38.361814558506 0.0753638950074573
38.3822884969413 0.0314465514751654
38.4027624353766 0.0487417905583516
38.423236373812 -0.0446253877429847
38.4437103122473 -0.0116758167621767
38.4641842506826 0.0317050868341091
38.4846581891179 0.118069406379205
38.5051321275532 0.0390838085397802
38.5256060659885 0.0851128766491649
38.5460800044239 -0.00165588929263838
38.5665539428592 -0.0220037392856312
38.5870278812945 0.00453807667018702
38.6075018197298 0.0258862252414829
38.6279757581651 -0.0582197102384103
38.6484496966004 -0.000383896436158881
38.6689236350358 0.0092894999815698
38.6893975734711 0.00856089568144291
38.7098715119064 -0.0194967926698728
38.7303454503417 -0.0175918984057106
38.750819388777 -0.0286931715260714
38.7712933272123 -0.0332693620309548
38.7917672656477 0.061127446746307
38.812241204083 0.0526743381390462
38.8327151425183 -0.0221703545194036
38.8531890809536 -0.0475212145623758
38.8736630193889 0.023099463356508
38.8941369578242 0.0468598072242032
38.9146108962595 0.0289681503740424
38.9350848346949 0.034528659472693
38.9555587731302 -0.0289065821465124
38.9760327115655 0.0912665921830935
38.9965066500008 0.00312109912817649
39.0169805884361 0.0972819386887376
39.0374545268714 0.0443220275314431
39.0579284653068 0.0447621989896261
39.0784024037421 -0.00947046360338
39.0988763421774 0.00141570641909139
39.1193502806127 0.0774207090570407
39.139824219048 0.0167216276438011
39.1602981574833 0.0497872121793721
39.1807720959187 0.149273712663754
39.201246034354 0.0586707124302808
39.2217199727893 -0.0215009551877148
39.2421939112246 0.0545920431431004
39.2626678496599 0.0408559574227265
39.2831417880952 0.0518741209844968
39.3036157265306 0.0342611171617451
39.3240896649659 0.00103777928780424
39.3445636034012 -0.0347750593039924
39.3650375418365 0.0973955180530222
39.3855114802718 0.0837474280255139
39.4059854187071 0.0948535872801504
39.4264593571424 0.108578579150264
39.4469332955778 -0.0560671796974772
39.4674072340131 -0.0475211892630745
39.4878811724484 0.0553410693989509
39.5083551108837 0.0944159106764539
39.528829049319 0.0423595845694347
39.5493029877543 0.117922091077893
39.5697769261897 0.075009680201829
39.590250864625 0.0451327686079095
39.6107248030603 0.086885106296134
39.6311987414956 0.0453187765998362
39.6516726799309 0.0493400295190163
39.6721466183662 0.0377509483870071
39.6926205568016 -0.00246930012952418
39.7130944952369 0.069304283969422
39.7335684336722 0.0304154506838461
39.7540423721075 -0.0592399666529193
39.7745163105428 -0.0294735962697898
39.7949902489781 -0.0439633932711827
39.8154641874135 -0.0319940200834312
39.8359381258488 -0.0382391476135355
39.8564120642841 -0.0340529425281622
39.8768860027194 -0.0441749881606441
39.8973599411547 -0.00429707167256432
39.91783387959 0.0147621774309932
39.9383078180254 -0.00652849084997165
39.9587817564607 -0.00306490984879204
39.979255694896 0.0199445871011985
39.9997296333313 0
