'Id: "" Comment: "" Operator: "Lab Manager" Anode: "Cu" Scantype: "Coupled TwoTheta/Theta" TimePerStep: "768" 
2.00009989738464 0
2.02057383581996 -0.249997411359744
2.04104777425528 0.030575098921183
2.06152171269059 0.108045063434167
2.08199565112591 -0.197275017820792
2.10246958956122 -0.0689788948436965
2.12294352799654 0.176527182365455
2.14341746643186 -0.0584130361933353
2.16389140486717 -0.0797891338534038
2.18436534330249 0.0479861678909153
2.2048392817378 -0.0963514927993758
2.22531322017312 -0.0663487134491358
2.24578715860844 -0.0610630632001721
2.26626109704375 -0.0101820420524854
2.28673503547907 0.15530476666059
2.30720897391438 0.164564029605723
2.3276829123497 -0.0123521698837559
2.34815685078502 -0.0017459151411785
2.36863078922033 -0.0184609561665443
2.38910472765565 -0.110674376293187
2.40957866609097 0.0168736577935604
2.43005260452628 -0.109462103887636
2.4505265429616 0.0129225053298896
2.47100048139691 0.0415795687794729
2.49147441983223 0.0285924197944452
2.51194835826755 -0.0911431082918597
2.53242229670286 -0.0371899202484158
2.55289623513818 0.00376488869375269
2.57337017357349 -0.177914098132024
2.59384411200881 0.00631478594092272
2.61431805044413 -0.0203713757540749
2.63479198887944 -0.0288059165503487
2.65526592731476 -0.0710721697812335
2.67573986575007 0.0611631978866036
2.69621380418539 0.0319626864531655
2.71668774262071 -0.0193507874148846
2.73716168105602 -0.000329307050877858
2.75763561949134 0.0096000442118509
2.77810955792665 -0.0312294002933626
2.79858349636197 0.00218235943347889
2.81905743479729 0.00957490672571115
2.8395313732326 -0.0363955084166685
2.86000531166792 -0.00161430266032525
2.88047925010324 -0.00326897600525733
2.90095318853855 0.0523904715485317
2.92142712697387 0.0403640400010437
2.94190106540918 0.0791413126856124
2.9623750038445 0.067159789602238
2.98284894227982 0.0669194707509186
3.00332288071513 0.0081078561316561
3.02379681915045 0.0300478624111156
3.04427075758576 -0.0130938437440342
3.06474469602108 0.051859820999538
3.0852186344564 -0.0263932266914999
3.10569257289171 0.036001179849519
3.12616651132703 0.0788867906225921
3.14664044976234 0.0488781889610568
3.16711438819766 0.12175662486491
3.18758832663298 -0.0436237349991799
3.20806226506829 -0.154294140631214
3.22853620350361 0.043619953487168
3.24901014193892 0.00457733517094017
3.26948408037424 0.0241509210867683
3.28995801880956 0.0111948779013193
3.31043195724487 -0.126738711052074
3.33090589568019 0.0699855708932571
3.35137983411551 0.0779302237373098
3.37185377255082 0.0116785808134194
3.39232771098614 0.0782618921215841
3.41280164942145 0.116221824328472
3.43327558785677 -0.0228791225659162
3.45374952629209 0.117990301438417
3.4742234647274 0.0739863463414734
3.49469740316272 0.0938069288099204
3.51517134159803 -0.106402117822911
3.53564528003335 0.0176300397763152
3.55611921846867 0.17814298494093
3.57659315690398 0.0678450510042676
3.5970670953393 -0.0124825120336709
3.61754103377461 0.00356654582711258
3.63801497220993 0.097763057919952
3.65848891064525 0.00187785757818126
3.67896284908056 0.1729421948018
3.69943678751588 0.0458519029241415
3.71991072595119 0.150554898611873
3.74038466438651 0.117259515198327
3.76085860282183 0.227215752683504
3.78133254125714 0.167923611067404
3.80180647969246 0.267508090350026
3.82228041812778 0.213469190531372
3.84275435656309 0.0761194116114403
3.86322829499841 0.109365003590232
3.88370223343372 0.240289299801079
3.90417617186904 0.168111050243983
3.92465011030436 0.22355942158561
3.94512404873967 0.292051080492626
3.96559798717499 0.182179776965032
3.9860719256103 0.235091344336159
4.00654586404562 0.177348282606011
4.02701980248094 0.303221425107918
4.04749374091625 0.225992021841883
4.06796767935157 0.273785072807902
4.08844161778688 0.285142244672645
4.1089155562222 0.296521870769443
4.12938949465752 0.128236451098299
4.14986343309283 0.364921402325877
4.17033737152815 0.0755871411188451
4.19081130996346 0.269348250810536
4.21128524839878 0.489173481400949
4.2317591868341 0.237666999556752
4.25223312526941 0.318214221944611
4.27270706370473 0.355815148564526
4.29318100214005 0.449428112749831
4.31365494057536 0.251396864500526
4.33412887901068 0.372398487149943
4.35460281744599 0.531182980698083
4.37507675588131 0.424364928478279
4.39555069431663 0.529808913823866
4.41602463275194 0.462098270068173
4.43649857118726 0.490764247211205
4.45697250962257 0.48690059525296
4.47744644805789 0.384101064193437
4.49792038649321 0.597730237365971
4.51839432492852 0.381694364770561
4.53886826336384 0.46776427974054
4.55934220179915 0.513492065609242
4.57981614023447 0.50064855571
4.60029007866979 0.572462916709481
4.6207640171051 0.438570565274352
4.64123795554042 0.566419418071279
4.66171189397573 0.601842808433596
4.68218583241105 0.396403236361301
4.70265977084637 0.46702778518773
4.72313370928168 0.451737288246216
4.743607647717 0.505479662203423
4.76408158615232 0.633463240392688
4.78455552458763 0.715896356147341
4.80502946302295 0.457206092800718
4.82550340145826 0.455048700352817
4.84597733989358 0.536247095470306
4.8664512783289 0.531530444819851
4.88692521676421 0.700013331734786
4.90739915519953 0.505237422881777
4.92787309363484 0.550067301594158
4.94834703207016 0.658721717871927
4.96882097050548 0.638492338381753
4.98929490894079 0.637816663123636
5.00976884737611 0.749142608764241
5.03024278581142 0.762834758636902
5.05071672424674 0.66717436274162
5.07119066268206 0.643151004411727
5.09166460111737 0.733733433647224
5.11213853955269 0.627723733781443
5.132612477988 0.735278154814385
5.15308641642332 0.975667530079384
5.17356035485864 0.752537692909772
5.19403429329395 0.668753226638883
5.21450823172927 0.76467871460005
5.23498217016459 0.955678740126608
5.2554561085999 0.831597053218553
5.27593004703522 0.807798237209223
5.29640398547053 0.850428125431948
5.31687792390585 0.934747134553397
5.33735186234117 1.06856776457357
5.35782580077648 1.06829626549246
5.3782997392118 1.00815138731008
5.39877367764711 1.01183104669308
5.41924761608243 1.32282482697481
5.43972155451775 1.41378897815527
5.46019549295306 1.61415058356777
5.48066943138838 1.48510755987901
5.50114336982369 1.72197240708896
5.52161730825901 2.16589095853097
5.54209124669433 2.14889446420504
5.56256518512964 2.51343084077783
5.58303912356496 2.91575008824934
5.60351306200027 3.07069595661957
5.62398700043559 3.82332052922186
5.64446093887091 4.28560297272288
5.66493487730622 4.46275162045595
5.68540881574154 5.53054772242108
5.70588275417686 6.50331419528492
5.72635669261217 7.51256145571416
5.74683063104749 9.21323742037546
5.7673045694828 12.1574254226021
5.78777850791812 16.1420004623942
5.80825244635344 18.3765979564183
5.82872638478875 13.3872595713412
5.84920032322407 6.32763114049611
5.86967426165938 3.29276474721641
5.8901482000947 2.1107853915021
5.91062213853002 1.87674515668651
5.93109607696533 1.43960237610298
5.95157001540065 1.37878413308483
5.97204395383596 1.26330084429875
5.99251789227128 1.31841292641138
6.0129918307066 1.12745371275608
6.03346576914191 1.07193361999949
6.05393970757723 1.05159223147496
6.07441364601254 1.06512746384916
6.09488758444786 1.13988306712207
6.11536152288318 1.33054654129371
6.13583546131849 1.10326371969741
6.15630939975381 1.06610751899983
6.17678333818913 1.06933835586764
6.19725727662444 1.01269581363417
6.21773121505976 1.07847155896609
6.23820515349507 1.00624892519673
6.25867909193039 0.969204995659435
6.27915303036571 0.951714770354191
6.29962696880102 1.10481991594767
6.32010090723634 0.920707932439873
6.34057484567165 0.989222569830797
6.36104878410697 0.874165911453779
6.38152272254229 1.00001712397548
6.4019966609776 0.961828290729243
6.42247059941292 0.987463995048392
6.44294453784823 0.860778403599599
6.46341847628355 1.00625068304953
6.48389241471887 0.951224583398179
6.50436635315418 1.09413760464555
6.5248402915895 1.00269808012498
6.54531423002481 1.02326017650314
6.56578816846013 0.955303060446682
6.58626210689545 0.897785065288947
6.60673604533076 0.932737441029937
6.62720998376608 0.868753937669648
6.6476839222014 0.825626221874749
6.66815786063671 0.751270960311907
6.68863179907203 0.855323569647787
6.70910573750734 0.817471549882391
6.72957967594266 0.831725317682383
6.75005361437798 0.739230706381099
6.77052755281329 0.804310632645204
6.79100149124861 0.847277596474698
6.81147542968392 0.812142014536249
6.83194936811924 0.736664303496523
6.85242330655456 0.715896546688854
6.87289724498987 0.771974160779906
6.89337118342519 0.802032562436349
6.9138451218605 0.72794675165818
6.93431906029582 0.974195895112069
6.95479299873114 0.751717492798013
6.97526693716645 0.869105294716014
6.99574087560177 0.817244717532737
7.01621481403708 0.786239927914849
7.0366887524724 0.777393009195685
7.05716269090772 0.815443544708578
7.07763662934303 0.806641534453525
7.09811056777835 0.73145572843053
7.11858450621367 0.846396543306257
7.13905844464898 0.677505645747374
7.1595323830843 0.86931428575388
7.18000632151961 1.02859329665911
7.20048025995493 0.775134345129729
7.22095419839025 0.929249931165737
7.24142813682556 0.800835888100467
7.26190207526088 0.766194299267255
7.28237601369619 0.718554331332766
7.30284995213151 0.788124317630332
7.32332389056683 0.666310508159954
7.34379782900214 0.664310819588299
7.36427176743746 0.877177335248701
7.38474570587277 0.859597555141159
7.40521964430809 0.826415229265673
7.42569358274341 0.828411607622244
7.44616752117872 0.97496169021087
7.46664145961404 0.814242560364886
7.48711539804935 0.917868801417625
7.50758933648467 0.81839249670242
7.52806327491999 0.880396979552605
7.5485372133553 0.795288499968178
7.56901115179062 0.725827474615809
7.58948509022594 0.778784736828828
7.60995902866125 0.722389453273905
7.63043296709657 0.736329123951037
7.65090690553188 0.91565583219356
7.6713808439672 0.833286244668137
7.69185478240252 0.819949528041438
7.71232872083783 0.707676932313462
7.73280265927315 0.801155957484208
7.75327659770846 0.711063686887011
7.77375053614378 0.67568137052187
7.7942244745791 0.866884008388785
7.81469841301441 1.01123410048776
7.83517235144973 0.857429563485451
7.85564628988504 0.952345397381868
7.87612022832036 0.687908685510341
7.89659416675568 0.811515261204205
7.91706810519099 0.958581791130124
7.93754204362631 1.1525457752881
7.95801598206162 0.985855130344796
7.97848992049694 1.13038485630022
7.99896385893226 1.19811411982103
8.01943779736757 1.1760220875739
8.03991173580289 1.46384834289215
8.06038567423821 1.59414496910913
8.08085961267352 1.85597446622483
8.10133355110884 2.27017016757259
8.12180748954415 2.5515758231524
8.14228142797947 2.80435809963094
8.16275536641479 3.6535169970082
8.1832293048501 3.72014626528419
8.20370324328542 3.37794382112556
8.22417718172073 2.76493049786565
8.24465112015605 2.24438754550447
8.26512505859137 1.81110663070868
8.28559899702668 1.69425442014494
8.306072935462 1.0513829971466
8.32654687389731 0.899419445046973
8.34702081233263 0.864665847179407
8.36749475076795 0.905455536877229
8.38796868920326 0.964496847473774
8.40844262763858 0.867310612302375
8.42891656607389 0.859990581363032
8.44939050450921 0.890453421322412
8.46986444294453 0.739949132180516
8.49033838137984 0.676706880604009
8.51081231981516 0.587445416592891
8.53128625825047 0.616695990147163
8.55176019668579 0.579562767933491
8.57223413512111 0.533337416618542
8.59270807355642 0.479322019535649
8.61318201199174 0.545120743351479
8.63365595042706 0.416931504732699
8.65412988886237 0.41636888701264
8.67460382729769 0.312964140191306
8.695077765733 0.326769347602026
8.71555170416832 0.382263675911472
8.73602564260364 0.480749208452972
8.75649958103895 0.223788445226528
8.77697351947427 0.288464719565475
8.79744745790958 0.347955114803143
8.8179213963449 0.205645047606202
8.83839533478022 0.179242851307984
8.85886927321553 0.125519359241821
8.87934321165085 0.271037071407715
8.89981715008616 0.238191821138999
8.92029108852148 0.309535691769005
8.9407650269568 0.203818683297734
8.96123896539211 0.277811629058519
8.98171290382743 0.134379112384694
9.00218684226274 0.0756044666095921
9.02266078069806 0.15487310839988
9.04313471913338 0.241976704422223
9.06360865756869 0.111654838009956
9.08408259600401 0.231355425829745
9.10455653443933 0.155765967881591
9.12503047287464 0.101032297498826
9.14550441130996 0.0346023313481165
9.16597834974527 0.203871902762796
9.18645228818059 0.0437368450762006
9.20692622661591 0.206540908288327
9.22740016505122 0.219627842399176
9.24787410348654 0.124664314075415
9.26834804192185 0.156025323317043
9.28882198035717 0.137929620124061
9.30929591879249 0.0339188711631357
9.3297698572278 0.0432118264342658
9.35024379566312 0.134558485937451
9.37071773409843 0.233740099672695
9.39119167253375 0.247006667639994
9.41166561096907 0.0506602731726828
9.43213954940438 0.114752999604093
9.4526134878397 0.109857763600894
9.47308742627501 0.279464148496419
9.49356136471033 0.273311737623998
9.51403530314565 0.273692197650301
9.53450924158096 0.58268886190866
9.55498318001628 0.493270480399075
9.5754571184516 0.625228719788213
9.59593105688691 0.802782330076074
9.61640499532223 0.908743811262658
9.63687893375754 1.22436316334796
9.65735287219286 1.64156746966533
9.67782681062818 1.81790881354808
9.69830074906349 2.50078302832955
9.71877468749881 3.36857553067642
9.73924862593412 3.82102590392201
9.75972256436944 4.95188414806632
9.78019650280476 6.49682734644268
9.80067044124007 7.74491799905111
9.82114437967539 10.4344373558916
9.8416183181107 13.2255416669641
9.86209225654602 16.7966163489354
9.88256619498134 22.5812551518054
9.90304013341665 29.5638330755741
9.92351407185197 37.2222147035748
9.94398801028728 46.6410354524743
9.9644619487226 51.6197744889392
9.98493588715792 44.1102547296361
10.0054098255932 32.7374761745651
10.0258837640285 21.2332096570595
10.0463577024639 12.0453718437859
10.0668316408992 7.64271273474439
10.0873055793345 4.78174274660159
10.1077795177698 3.3010035460242
10.1282534562051 2.77210971634552
10.1487273946404 2.1065195908989
10.1692013330758 1.46829566968433
10.1896752715111 1.27670878603515
10.2101492099464 1.03436310661803
10.2306231483817 0.835008631432971
10.251097086817 0.679947443813296
10.2715710252523 0.771002460425679
10.2920449636877 0.610777847936784
10.312518902123 0.352919439679945
10.3329928405583 0.334666818988496
10.3534667789936 0.423207485862437
10.3739407174289 0.3620310236351
10.3944146558642 0.457127015639819
10.4148885942996 0.254068378543261
10.4353625327349 0.16821969567876
10.4558364711702 0.230830967046314
10.4763104096055 0.128100109312592
10.4967843480408 0.248047955810925
10.5172582864761 0.205257839874649
10.5377322249115 0.326552678170429
10.5582061633468 0.475213720698264
10.5786801017821 0.43379305079149
10.5991540402174 0.464009418450104
10.6196279786527 0.405706573674109
10.640101917088 0.326592849796835
10.6605758555233 0.166772413484952
10.6810497939587 0.337703598071792
10.701523732394 0.10370932022402
10.7219976708293 0.229112496608306
10.7424716092646 0.0732881272246475
10.7629455476999 0.202642462073045
10.7834194861352 0.0182171678201661
10.8038934245706 0.0942309944660096
10.8243673630059 -0.100566057989425
10.8448413014412 0.117419760453865
10.8653152398765 -0.0200407168707901
10.8857891783118 0.0456462600366123
10.9062631167471 -0.0982797254905972
10.9267370551825 -0.00780825678575026
10.9472109936178 -0.064449750515513
10.9676849320531 0.00239284657989902
10.9881588704884 0.0406120645740344
11.0086328089237 0.0671349868002258
11.029106747359 0.04940952992514
11.0495806857944 0.0668627772821102
11.0700546242297 0.0609009788711368
11.090528562665 0.138294968025552
11.1110025011003 -0.00434067192130838
11.1314764395356 0.0874211423638869
11.1519503779709 -0.0200133391188615
11.1724243164063 0.136897550297113
11.1928982548416 0.15581006061181
11.2133721932769 0.108338775158563
11.2338461317122 0.146827443937372
11.2543200701475 0.366328150281571
11.2747940085828 0.316320060857826
11.2952679470181 0.457740675666138
11.3157418854535 0.676006661373172
11.3362158238888 0.774503434645597
11.3566897623241 1.13994974548341
11.3771637007594 1.75151226055328
11.3976376391947 2.21856597985521
11.41811157763 2.91220465338919
11.4385855160654 2.67487619782189
11.4590594545007 1.69277852981999
11.479533392936 0.919036649383471
11.5000073313713 0.713025556512344
11.5204812698066 0.409380667873273
11.5409552082419 0.163049900132926
11.5614291466773 0.155022836624635
11.5819030851126 0.106653644015067
11.6023770235479 0.0361714889708873
11.6228509619832 -0.0108507118412349
11.6433249004185 -0.0500379584213015
11.6637988388538 0.0292868325640216
11.6842727772892 0.0213944944480673
11.7047467157245 0.135920443897503
11.7252206541598 -0.0477082357543388
11.7456945925951 0.0577480388258751
11.7661685310304 0.10593510097148
11.7866424694657 -0.0672095493175258
11.807116407901 0.241439087958856
11.8275903463364 -0.0827023205327042
11.8480642847717 0.0502099752077916
11.868538223207 -0.0460219414863232
11.8890121616423 0.154643596051617
11.9094861000776 0.0506440878216159
11.9299600385129 0.0716670338236689
11.9504339769483 0.0171916007244457
11.9709079153836 0.018728205190611
11.9913818538189 0.0827872638888332
12.0118557922542 0.00494169348577911
12.0323297306895 0.0195664939814471
12.0528036691248 0.0941095820425053
12.0732776075602 0.0710188743356182
12.0937515459955 0.00498187086078827
12.1142254844308 -0.00113684504865219
12.1346994228661 0.12037105994063
12.1551733613014 0.0973701691619691
12.1756472997367 0.0522563159486968
12.1961212381721 -0.086585083032519
12.2165951766074 -0.055775329074887
12.2370691150427 0.00891104578146829
12.257543053478 0.00330737486987864
12.2780169919133 0.0263719915236793
12.2984909303486 0.0103965624095359
12.318964868784 0.033506087527448
12.3394388072193 -0.0136744331225822
12.3599127456546 -0.0282804162072239
12.3803866840899 0.139427721606857
12.4008606225252 -0.056122936347005
12.4213345609605 0.0582446932645224
12.4418084993958 0.0281035271081058
12.4622824378312 -0.00592143481625484
12.4827563762665 -0.0477364425085587
12.5032303147018 0.0771376706978595
12.5237042531371 0.00672173813633448
12.5441781915724 -0.0259113235264672
12.5646521300077 0.0326239023761197
12.5851260684431 0.118525332510763
12.6056000068784 0.0859596335441291
12.6260739453137 0.029978888809552
12.646547883749 0.082093514973697
12.6670218221843 -0.0610819046301017
12.6874957606196 0.024931796664823
12.707969699055 0.0198221188584706
12.7284436374903 0.0355682286175072
12.7489175759256 -0.0697569573913999
12.7693915143609 0.143950727498416
12.7898654527962 -0.0498712167130453
12.8103393912315 0.0792459599742172
12.8308133296669 0.0872918408935348
12.8512872681022 -0.123389823955092
12.8717612065375 0.0461592987616721
12.8922351449728 0.163647542377158
12.9127090834081 0.104074906891367
12.9331830218434 0.1018163923043
12.9536569602787 0.248017831949289
12.9741308987141 0.283564642493
12.9946048371494 0.191529740602101
13.0150787755847 0.195871459609925
13.03555271402 0.170287716183137
13.0560266524553 0.11477851032174
13.0765005908906 0.108770925359066
13.096974529326 0.216067044628448
13.1174484677613 0.125468951463219
13.1379224061966 0.105205812530047
13.1583963446319 0.0732463778289301
13.1788702830672 0.0100593973598704
13.1993442215025 -0.0218551288771338
13.2198181599379 0.0608361324512519
13.2402920983732 0.00292484801169346
13.2607660368085 0.0856610178041919
13.2812399752438 0.223107141828746
13.3017139136791 0.187398636752023
13.3221878521144 0.150410502574023
13.3426617905498 0.225423989294746
13.3631357289851 0.204105763580859
13.3836096674204 0.119007908765694
13.4040836058557 0.100338758182585
13.424557544291 0.00096289516486614
13.4450314827263 0.0279115697125367
13.4655054211617 -0.0570964681744024
13.485979359597 0.0454179481707135
13.5064532980323 0.081548568747885
13.5269272364676 0.0278578935571141
13.5474011749029 -0.184664494068268
13.5678751133382 0.0325230725384067
13.5883490517735 0.110410176710471
13.6088229902089 0.110194735114591
13.6292969286442 0.0995850810841006
13.6497708670795 0.121549964619
13.6702448055148 0.124006052385956
13.6907187439501 0.1551304277183
13.7111926823854 -0.196535242717298
13.7316666208208 0.0312486244124925
13.7521405592561 0.00514869577433874
13.7726144976914 0.0233420547015757
13.7930884361267 -0.0495879654724654
13.813562374562 0.0467753019188839
13.8340363129973 -0.0664743931243779
13.8545102514327 -0.00131621726891673
13.874984189868 0.0781873294852673
13.8954581283033 -0.0284845861951588
13.9159320667386 0.135699285689804
13.9364060051739 0.125426445140157
13.9568799436092 0.232363558822566
13.9773538820446 0.30807312673703
13.9978278204799 0.305680148883552
14.0183017589152 0.226486708595463
14.0387756973505 0.168149055872763
14.0592496357858 0.0538442740487861
14.0797235742211 0.110134863123533
14.1001975126565 0.072697906430335
14.1206714510918 -0.00377909603080706
14.1411453895271 0.100755939073442
14.1616193279624 0.22614676174308
14.1820932663977 0.17447670531144
14.202567204833 0.234808269778523
14.2230411432683 0.312089371810996
14.2435150817037 0.488351261408858
14.263989020139 0.359948105238777
14.2844629585743 0.305786153300752
14.3049368970096 0.147479988928116
14.3254108354449 0.0933629454542029
14.3458847738802 -0.0688045604543204
14.3663587123156 -0.0421475287974538
14.3868326507509 -0.0193742929085317
14.4073065891862 0.00211931387911424
14.4277805276215 0.0874374582321491
14.4482544660568 0.0139238901505734
14.4687284044921 -0.0725880570322799
14.4892023429275 0.00498495001692412
14.5096762813628 0.0643512446315171
14.5301502197981 0.127646243478167
14.5506241582334 0.105026196556872
14.5710980966687 0.168366103867633
14.591572035104 0.128863882077118
14.6120459735394 0.237821614518658
14.6325199119747 0.163208051192256
14.65299385041 0.289137775431242
14.6734677888453 0.603892037235617
14.6939417272806 0.724658336605383
14.7144156657159 1.2907595902072
14.7348896041512 1.49750829804108
14.7553635425866 2.39308154344035
14.7758374810219 2.42018765973834
14.7963114194572 2.21294123026839
14.8167853578925 1.59295683836382
14.8372592963278 1.13445323402465
14.8577332347631 0.62128458391753
14.8782071731985 0.385482138042468
14.8986811116338 0.265587563066129
14.9191550500691 0.149621692321846
14.9396289885044 0.344876192476286
14.9601029269397 0.228955230196115
14.980576865375 0.119567138814668
15.0010508038104 0.10134733499861
15.0215247422457 0.148254152081274
15.041998680681 0.0415375900626618
15.0624726191163 0.153593482276105
15.0829465575516 0.171921828721606
15.1034204959869 0.228033046065828
15.1238944344223 0.333645884308774
15.1443683728576 0.573395760117109
15.1648423112929 0.8014493401575
15.1853162497282 0.903223291096615
15.2057901881635 1.13262386293445
15.2262641265988 1.72011980567101
15.2467380650342 2.45216945263963
15.2672120034695 3.80403322050697
15.2876859419048 5.12466944260636
15.3081598803401 6.92970311893781
15.3286338187754 7.61366549950132
15.3491077572107 7.07629616763022
15.369581695646 5.58973053999117
15.3900556340814 4.04589569991752
15.4105295725167 2.53072914740925
15.431003510952 1.4635017157997
15.4514774493873 1.10853632175555
15.4719513878226 0.605155881943449
15.4924253262579 0.515860396363407
15.5128992646933 0.473462365015421
15.5333732031286 0.358170121232824
15.5538471415639 0.156962831682282
15.5743210799992 0.157600913030465
15.5947950184345 0.0514906152773698
15.6152689568698 0.102954855089665
15.6357428953052 0.0281394658006819
15.6562168337405 0.0926694474104219
15.6766907721758 -0.0172572834144482
15.6971647106111 -0.0451303100072624
15.7176386490464 0.0376962009653128
15.7381125874817 -0.0604444171633887
15.7585865259171 -0.0609063310600337
15.7790604643524 -0.00145392102609465
15.7995344027877 -0.0943228067600996
15.820008341223 0.0498099284046192
15.8404822796583 -4.52988652730468E-05
15.8609562180936 -0.00821140523644237
15.8814301565289 0.00968660929111165
15.9019040949643 -0.0479137552826119
15.9223780333996 0.011695834375721
15.9428519718349 -0.144817955067224
15.9633259102702 -0.00443429027811115
15.9837998487055 0.046128078743056
16.0042737871408 0.15921290199628
16.0247477255762 0.0978410128148943
16.0452216640115 0.17190824453223
16.0656956024468 0.195216680481624
16.0861695408821 0.337037153996406
16.1066434793174 0.452838415076578
16.1271174177527 0.796526713722139
16.1475913561881 1.10508121659976
16.1680652946234 1.19881442370943
16.1885392330587 1.58293466838449
16.209013171494 1.44624403395828
16.2294871099293 1.25098210376412
16.2499610483646 0.980221794468688
16.2704349868 0.809744356071976
16.2909089252353 0.459601871907321
16.3113828636706 0.470158925308055
16.3318568021059 0.354436349607511
16.3523307405412 0.199673728139024
16.3728046789765 0.10613147756926
16.3932786174119 0.0243304312315518
16.4137525558472 0.100103922459233
16.4342264942825 -0.00769388208102839
16.4547004327178 -0.00349006572256805
16.4751743711531 -0.0344200451320518
16.4956483095884 -0.00673382030947867
16.5161222480237 0.00925610874515082
16.5365961864591 0.0539143253651693
16.5570701248944 0.00614707955057714
16.5775440633297 -0.0402956286986242
16.598018001765 0.0747424506175634
16.6184919402003 0.0296467341658069
16.6389658786356 -0.0596973613872271
16.659439817071 -0.0473646898677704
16.6799137555063 0.0509279358837418
16.7003876939416 0.0932534325339782
16.7208616323769 0.0496638834162697
16.7413355708122 0.052971788530618
16.7618095092475 0.0758333978770223
16.7822834476829 0.0596549614554824
16.8027573861182 -0.0320218540673345
16.8232313245535 0.277365451308572
16.8437052629888 0.154483544249867
16.8641792014241 0.292040758089886
16.8846531398594 0.270766259495294
16.9051270782948 0.348472548466092
16.9256010167301 0.400159625002279
16.9460749551654 0.763067072437189
16.9665488936007 0.973653224104155
16.987022832036 1.31577224666984
17.0074967704713 1.71390330680092
17.0279707089067 2.60684848783073
17.048444647342 3.25111820642592
17.0689185857773 3.54645204591983
17.0893925242126 3.56576667297913
17.1098664626479 3.13328083760383
17.1303404010832 3.04586953979391
17.1508143395185 3.13165777954938
17.1712882779539 2.98569764020358
17.1917622163892 2.86319745508983
17.2122361548245 2.59228222420813
17.2327100932598 1.92946236422516
17.2531840316951 1.68593579180758
17.2736579701304 1.29790042362206
17.2941319085658 1.00493959300192
17.3146058470011 0.83830329994718
17.3350797854364 0.705543627791158
17.3555537238717 0.446504326533858
17.376027662307 0.466133312841948
17.3965016007423 0.218857670048761
17.4169755391777 0.140875314820964
17.437449477613 0.242602913825223
17.4579234160483 0.0578946337282047
17.4783973544836 0.201333807863243
17.4988712929189 0.22891001956367
17.5193452313542 0.272133685496154
17.5398191697896 0.285431888994027
17.5602931082249 0.266200463390623
17.5807670466602 0.369387325352609
17.6012409850955 0.279888308213317
17.6217149235308 0.380515911972748
17.6421888619661 0.628301386630902
17.6626628004014 1.06491139885445
17.6831367388368 1.33097094864338
17.7036106772721 1.8717925359977
17.7240846157074 2.40742824425075
17.7445585541427 2.50688849006918
17.765032492578 2.24569410678634
17.7855064310133 1.80743884440222
17.8059803694487 1.14003936958349
17.826454307884 0.656256098996819
17.8469282463193 0.439422365975535
17.8674021847546 0.199173587186308
17.8878761231899 0.154259762629136
17.9083500616252 0.106764225637355
17.9288240000606 0.0410619762109619
17.9492979384959 0.0574134310166263
17.9697718769312 0.0829019233876793
17.9902458153665 0.00424620332412218
18.0107197538018 0.206862937492621
18.0311936922371 0.0175750425598435
18.0516676306725 0.186382518525789
18.0721415691078 0.231514532057123
18.0926155075431 0.120418999820513
18.1130894459784 0.218981338482627
18.1335633844137 0.317566131376797
18.154037322849 0.528152545169689
18.1745112612844 0.521313496527971
18.1949851997197 1.03663231878498
18.215459138155 1.2147340119407
18.2359330765903 1.16238940932849
18.2564070150256 0.921265177614995
18.2768809534609 0.815580066800225
18.2973548918962 0.642209076884177
18.3178288303316 0.524850124533519
18.3383027687669 0.489544876414918
18.3587767072022 0.361814165861706
18.3792506456375 0.439835076207217
18.3997245840728 0.378555524118116
18.4201985225081 0.53084009292774
18.4406724609435 0.658407532636085
18.4611463993788 0.795112009909822
18.4816203378141 0.905797274748946
18.5020942762494 1.34593207715346
18.5225682146847 1.77567266712337
18.54304215312 2.42548779465866
18.5635160915554 3.44121079309268
18.5839900299907 4.99992499575875
18.604463968426 7.63288040265688
18.6249379068613 10.7541395137871
18.6454118452966 15.4574523291493
18.6658857837319 20.7037563487436
18.6863597221673 24.9644057392366
18.7068336606026 28.2706505006284
18.7273075990379 26.9792614662522
18.7477815374732 25.1931032194414
18.7682554759085 21.2507174268626
18.7887294143438 17.1169478385159
18.8092033527792 15.3373673710679
18.8296772912145 12.710153107852
18.8501512296498 9.60119046553481
18.8706251680851 6.864646110783
18.8910991065204 4.49921796026325
18.9115730449557 2.89943726397556
18.932046983391 2.07181443858658
18.9525209218264 1.45775573409634
18.9729948602617 1.16403198383814
18.993468798697 0.889861937812007
19.0139427371323 0.704256012684592
19.0344166755676 0.706172541789235
19.0548906140029 0.6052469417926
19.0753645524383 0.482208379361355
19.0958384908736 0.482890187828833
19.1163124293089 0.353386117195033
19.1367863677442 0.391873250793291
19.1572603061795 0.314497421956937
19.1777342446148 0.446779464019306
19.1982081830502 0.332990210313731
19.2186821214855 0.354640077506879
19.2391560599208 0.364593648932084
19.2596299983561 0.338111341256012
19.2801039367914 0.397588987811995
19.3005778752267 0.352922421933368
19.3210518136621 0.553069976953464
19.3415257520974 0.612614986205617
19.3619996905327 0.867494949689825
19.382473628968 1.03906403407276
19.4029475674033 1.39685348935441
19.4234215058386 1.75726956553479
19.4438954442739 2.40286434594722
19.4643693827093 3.14743991392504
19.4848433211446 4.27745460280159
19.5053172595799 5.60020007924352
19.5257911980152 7.04015550991752
19.5462651364505 8.2197167281569
19.5667390748858 8.97091498396167
19.5872130133212 8.53854194399849
19.6076869517565 8.05541010826738
19.6281608901918 7.08141531010165
19.6486348286271 6.22723463283464
19.6691087670624 5.70640974313303
19.6895827054977 4.98248230766347
19.7100566439331 4.75076482642597
19.7305305823684 4.64146563275385
19.7510045208037 5.14416805998046
19.771478459239 5.39819502477246
19.7919523976743 5.60016111046318
19.8124263361096 5.55084756705263
19.832900274545 4.83879606120746
19.8533742129803 4.22832950959435
19.8738481514156 3.48637499554663
19.8943220898509 2.79913043573097
19.9147960282862 2.11972083014736
19.9352699667215 1.75543784546248
19.9557439051569 1.53961481500965
19.9762178435922 1.06730382212221
19.9966917820275 0.837202783466828
20.0171657204628 0.586290865710168
20.0376396588981 0.422640985518898
20.0581135973334 0.329326059559683
20.0785875357687 0.454783587832526
20.0990614742041 0.460471903670757
20.1195354126394 0.418005590407712
20.1400093510747 0.289624231376723
20.16048328951 0.299286159911123
20.1809572279453 0.272512209344246
20.2014311663806 0.140291963009425
20.221905104816 0.0888233375733272
20.2423790432513 0.112897999702619
20.2628529816866 0.0289221993973001
20.2833269201219 0.175437603324037
20.3038008585572 0.114944211482832
20.3242747969925 -0.00412047612631872
20.3447487354279 0.0864727071632543
20.3652226738632 0.0572966780182163
20.3856966122985 0.111476436438568
20.4061705507338 0.0706265657576424
20.4266444891691 0.07146581597544
20.4471184276044 0.073629603758627
20.4675923660398 0.12269084577387
20.4880663044751 0.127503708687836
20.5085402429104 0.0958806925005256
20.5290141813457 0.186675963878604
20.549488119781 0.313952022822072
20.5699620582163 0.295417202664263
20.5904359966516 0.601123586738511
20.610909935087 1.04877950837815
20.6313838735223 1.60973913424984
20.6518578119576 2.55483579768692
20.6723317503929 4.12755908202273
20.6928056888282 5.82790898725726
20.7132796272635 6.40458343005717
20.7337535656989 5.78596782708915
20.7542275041342 4.81841634501984
20.7747014425695 3.27406440051593
20.7951753810048 1.91593282691074
20.8156493194401 0.997927874204271
20.8361232578754 0.645049542396526
20.8565971963108 0.453651998154171
20.8770711347461 0.297433158143871
20.8975450731814 0.106080522365628
20.9180190116167 0.212927424152774
20.938492950052 0.201307196838644
20.9589668884873 0.158459423756569
20.9794408269227 0.131259104906551
20.999914765358 0.171789573621921
21.0203887037933 0.221457079902682
21.0408626422286 0.334949123748833
21.0613365806639 0.242734455160372
21.0818105190992 0.287260990803968
21.1022844575346 0.0818099806796204
21.1227583959699 0.0808085081206622
21.1432323344052 -0.0204309268729066
21.1637062728405 0.047622925698914
21.1841802112758 -0.00669660083054202
21.2046541497111 -0.0102124231279426
21.2251280881464 -0.0384453745266198
21.2456020265818 0.0205837116400924
21.2660759650171 -0.0193230812944725
21.2865499034524 0.0176154966696855
21.3070238418877 0.059784862199233
21.327497780323 0.0277579319608368
21.3479717187583 -0.10060071071217
21.3684456571937 0.0119485175135461
21.388919595629 -0.0343339666953484
21.4093935340643 0.0404997533278135
21.4298674724996 0.0281163442496979
21.4503414109349 -0.101432110596361
21.4708153493702 0.0450835554563027
21.4912892878056 -0.00369082425897727
21.5117632262409 -0.0433281664088678
21.5322371646762 -0.036068054326702
21.5527111031115 -0.0144625713458137
21.5731850415468 -0.0813763007995352
21.5936589799821 0.0157299106071442
21.6141329184175 -0.044693507087453
21.6346068568528 0.000374279450005677
21.6550807952881 -0.0209417297804793
21.6755547337234 -0.0539540347789078
21.6960286721587 -0.0518049257534998
21.716502610594 0.0350020541706306
21.7369765490294 -0.035720595006516
21.7574504874647 -0.0738687066182728
21.7779244259 0.140609802668693
21.7983983643353 -0.0472329838122851
21.8188723027706 0.124321683938793
21.8393462412059 0.0641279725885946
21.8598201796412 0.158904632137118
21.8802941180766 0.054484995917699
21.9007680565119 0.054254480597002
21.9212419949472 0.00326516950836142
21.9417159333825 0.0187045626517772
21.9621898718178 0.0419789100272485
21.9826638102531 -0.0284742883652234
22.0031377486885 0.106824134141027
22.0236116871238 -0.114625822453999
22.0440856255591 0.104050841849697
22.0645595639944 -0.00277087294788281
22.0850335024297 -0.0236326335134076
22.105507440865 -0.0132219398468756
22.1259813793004 0.127419541385046
22.1464553177357 0.143083476849023
22.166929256171 0.16788444987839
22.1874031946063 0.11328079380648
22.2078771330416 0.23968917529996
22.2283510714769 0.138255427692162
22.2488250099123 0.176167050983087
22.2692989483476 0.0721740451727357
22.2897728867829 0.101015993594439
22.3102468252182 0.015297062914867
22.3307207636535 0.045486003134017
22.3511947020888 -0.0154484357481102
22.3716686405241 -0.0529229203981814
22.3921425789595 0.00568171242300775
22.4126165173948 0.0369650494762528
22.4330904558301 0.0904062574282207
22.4535643942654 0.0410053362789116
22.4740383327007 0.0059497860283253
22.494512271136 0.0972187733431285
22.5149862095714 0.0973643815566545
22.5354601480067 0.19258452733557
22.555934086442 0.141993794013209
22.5764080248773 0.17996718158957
22.5968819633126 0.457546356731321
22.6173559017479 0.401814652771794
22.6378298401833 0.334386653044324
22.6583037786186 0.378960274215578
22.6787777170539 0.285535516285553
22.6992516554892 0.265049879254252
22.7197255939245 0.37088877978834
22.7401995323598 0.425968884554484
22.7606734707952 0.317008943552684
22.7811474092305 0.206769373449608
22.8016213476658 0.254104340911921
22.8220952861011 0.120472179272957
22.8425692245364 0.193893721866049
22.8630431629717 0.10067105202453
22.8835171014071 0.120752086415068
22.9039910398424 0.0939805750376617
22.9244649782777 0.147960684558978
22.944938916713 0.136859081645685
22.9654128551483 0.0372382662977806
22.9858867935836 0.127744071848599
23.0063607320189 -0.0382380850351924
23.0268346704543 0.0796563789797387
23.0473086088896 -0.0628433694399408
23.0677825473249 -0.0516748302942305
23.0882564857602 0.0166768683549736
23.1087304241955 0.0577072712362341
23.1292043626308 -0.074416954983783
23.1496783010662 0.147647939694923
23.1701522395015 -0.033910544727648
23.1906261779368 0.0462721750818371
23.2111001163721 0.0848106824567116
23.2315740548074 0.148111227396976
23.2520479932427 0.0486738099026294
23.2725219316781 0.221394263307006
23.2929958701134 0.247001754276772
23.3134698085487 0.306485866145261
23.333943746984 0.384221598912473
23.3544176854193 0.400781869245074
23.3748916238546 0.392625010476399
23.39536556229 0.392303105939779
23.4158395007253 0.333409905635215
23.4363134391606 0.313601659562708
23.4567873775959 0.141472117722258
23.4772613160312 0.28446919678053
23.4977352544665 0.0407699800708574
23.5182091929019 0.0666244675932419
23.5386831313372 0.0599493260143489
23.5591570697725 0.0611091386675127
23.5796310082078 0.0870309888860654
23.6001049466431 0.0179232100033411
23.6205788850784 -0.0081933646473269
23.6410528235137 0.101129181600728
23.6615267619491 0.00214084874750586
23.6820007003844 0.0203624701263396
23.7024746388197 0.0503252957372293
23.722948577255 -0.0316685910864907
23.7434225156903 -0.0368171070114882
23.7638964541256 0.0127443312955706
23.784370392561 0.0375886405013524
23.8048443309963 -0.0391070960608104
23.8253182694316 0.0209383716090841
23.8457922078669 -0.0492020398222994
23.8662661463022 -0.0125491636882926
23.8867400847375 0.0228240833444366
23.9072140231729 0.0126468679425549
23.9276879616082 0.0545754401060639
23.9481619000435 0.140797299834961
23.9686358384788 0.182770780462582
23.9891097769141 0.134922965322259
24.0095837153494 0.160014271080659
24.0300576537848 0.256742614404448
24.0505315922201 0.300107995293627
24.0710055306554 0.338287497081529
24.0914794690907 0.414249869768153
24.111953407526 0.581380530020168
24.1324273459613 0.769366977837572
24.1529012843966 0.834980046553698
24.173375222832 0.890198902835214
24.1938491612673 1.15898188001545
24.2143230997026 1.38221439476108
24.2347970381379 1.65625061373877
24.2552709765732 1.85348637028184
24.2757449150085 2.55334874772364
24.2962188534439 2.97328566273082
24.3166927918792 3.04819294863673
24.3371667303145 2.79369560544137
24.3576406687498 2.40250196647805
24.3781146071851 2.05950786508013
24.3985885456204 1.5928383012476
24.4190624840558 1.15744119164712
24.4395364224911 1.04888945294537
24.4600103609264 0.691662251809007
24.4804842993617 0.644353338238032
24.500958237797 0.608785628899114
24.5214321762323 0.471677873792252
24.5419061146677 0.490842572917447
24.562380053103 0.503519309608031
24.5828539915383 0.386010167197337
24.6033279299736 0.441700562352034
24.6238018684089 0.41277799507212
24.6442758068442 0.222419548690929
24.6647497452796 0.29640647320846
24.6852236837149 0.281874185291381
24.7056976221502 0.249135184939692
24.7261715605855 0.344022805486725
24.7466454990208 0.343880796932481
24.7671194374561 0.511729992610294
24.7875933758914 0.632726642520163
24.8080673143268 0.779787413328754
24.8285412527621 0.891714388369402
24.8490151911974 1.15861173430877
24.8694891296327 1.34870861781353
24.889963068068 1.87085920555035
24.9104370065033 2.21985516418589
24.9309109449387 2.68345691038682
24.951384883374 3.00385194415314
24.9718588218093 3.66671734881818
24.9923327602446 4.14601145771528
25.0128066986799 4.51334885417776
25.0332806371152 5.02263578820564
25.0537545755506 5.38350767646557
25.0742285139859 5.34856868562423
25.0947024524212 5.6990688156816
25.1151763908565 5.57563306663771
25.1356503292918 5.42748018849253
25.1561242677271 4.89132893124608
25.1765982061625 4.37993971156502
25.1970721445978 3.79175002944934
25.2175460830331 3.38327030156572
25.2380200214684 2.82637552791416
25.2584939599037 2.47653445849466
25.278967898339 2.17098667664054
25.2994418367743 2.26650301568515
25.3199157752097 2.02870847562848
25.340389713645 1.79354055647053
25.3608636520803 1.53625967487797
25.3813375905156 1.15790749751747
25.4018115289509 0.986609024389026
25.4222854673862 0.873926755492637
25.4427594058216 0.646683607494971
25.4632333442569 0.427275413729361
25.4837072826922 0.452681340862474
25.5041812211275 0.314047222227643
25.5246551595628 0.250956391158201
25.5451290979981 0.385804680987483
25.5656030364335 0.284998341715488
25.5860769748688 0.266245706675548
25.6065509133041 0.364703025867665
25.6270248517394 0.424120299291838
25.6474987901747 0.574705860281401
25.66797272861 0.506563875503019
25.6884466670454 0.642871428290027
25.7089206054807 0.728420185309092
25.729394543916 0.856960146560212
25.7498684823513 0.76677256204339
25.7703424207866 0.819836598425289
25.7908163592219 0.831256422372579
25.8112902976573 0.698167450551924
25.8317642360926 0.679684266296659
25.8522381745279 0.510181869606783
25.8727121129632 0.429243593815631
25.8931860513985 0.412129855589868
25.9136599898338 0.362486488262828
25.9341339282691 0.367553075167844
25.9546078667045 0.42472544963825
25.9750818051398 0.147284861674045
25.9955557435751 0.332106311275229
26.0160296820104 0.194033548441803
26.0365036204457 0.255201989840434
26.056977558881 0.0859241354711202
26.0774514973164 0.049481235333863
26.0979254357517 0.0417066227619953
26.118399374187 0.126402381088851
26.1388733126223 0.0262247603144286
26.1593472510576 0.0471633437720627
26.1798211894929 -0.0933339518715801
26.2002951279283 -0.0450067099498335
26.2207690663636 -0.0109799304626972
26.2412430047989 -0.0212015300768384
26.2617169432342 -0.000150675458923111
26.2821908816695 0.0508705500577149
26.3026648201048 -0.0074607701935907
26.3231387585402 -0.0280092195461734
26.3436126969755 0.00354811866663329
26.3640866354108 -0.0586220888885038
26.3845605738461 0.0680322411217487
26.4050345122814 -0.0709159746359429
26.4255084507167 -0.00541465282824483
26.4459823891521 0.0575049565448431
26.4664563275874 -0.0644488131833463
26.4869302660227 -0.0590132923633946
26.507404204458 0.0792571826886135
26.5278781428933 0.00400844530601074
26.5483520813286 0.0615946621554648
26.5688260197639 0.0345679165703077
26.5892999581993 -0.0106655414494596
26.6097738966346 0.110790121429496
26.6302478350699 -0.0515859281261588
26.6507217735052 0.0178313098835758
26.6711957119405 0.0403960021253669
26.6916696503758 0.0773060652658804
26.7121435888112 -0.0094593340282163
26.7326175272465 0.0652560542430767
26.7530914656818 0.104837646746426
26.7735654041171 0.119702110148497
26.7940393425524 0.120266111115959
26.8145132809877 0.139081732982144
26.8349872194231 0.306357309080384
26.8554611578584 0.20412408941068
26.8759350962937 0.2334237406397
26.896409034729 0.210662512767443
26.9168829731643 0.111100822460575
26.9373569115996 0.102707419719096
26.957830850035 0.099544804543007
26.9783047884703 0.100310893598974
26.9987787269056 -0.0173901464463357
27.0192526653409 0.0485250177404102
27.0397266037762 0.0441501361592129
27.0602005422115 -0.0643689578565951
27.0806744806468 -0.0153135143070136
27.1011484190822 0.0298581334746242
27.1216223575175 0.0255730688216516
27.1420962959528 0.0408417084007351
27.1625702343881 0.0118619688785415
27.1830441728234 0.0297796835884041
27.2035181112587 0.11282401919699
27.2239920496941 0.155526225704298
27.2444659881294 0.140959219776996
27.2649399265647 0.256623001415083
27.285413865 0.16267382061856
27.3058878034353 0.198955427387426
27.3263617418706 0.207915738388349
27.346835680306 0.184346420287995
27.3673096187413 0.280591223086363
27.3877835571766 0.211493896783454
27.4082574956119 0.202314858045935
27.4287314340472 0.329877023540472
27.4492053724825 0.346784559933732
27.4696793109179 0.522568717225714
27.4901532493532 0.64629199541642
27.5106271877885 0.688006477839182
27.5311011262238 0.925055914494
27.5515750646591 1.01369030538087
27.5720490030944 0.989065900499804
27.5925229415298 1.19102644985079
27.6129968799651 1.12347820343383
27.6334708184004 1.24866074458227
27.6539447568357 1.16162615662942
27.674418695271 0.962634856241965
27.6948926337063 0.8821555934199
27.7153665721416 0.713157118163224
27.735840510577 0.697826930471937
27.7563144490123 0.67991503034604
27.7767883874476 0.469317251118866
27.7972623258829 0.487908592790414
27.8177362643182 0.510428638694019
27.8382102027535 0.471773222163014
27.8586841411889 0.480015259864065
27.8791580796242 0.354165168463837
27.8996320180595 0.348129197962334
27.9201059564948 0.379876098359553
27.9405798949301 0.235864202988828
27.9610538333654 0.288489345183493
27.9815277718008 0.242178608276881
28.0020017102361 0.113859075602325
28.0224756486714 0.176968247159825
28.0429495871067 0.0981727896160476
28.063423525542 0.00377478630432715
28.0838974639773 0.00705548722466265
28.1043714024127 0.00905655904372082
28.124845340848 0.0214967517615019
28.1453192792833 0.0391677320446728
28.1657932177186 0.0243090832265662
28.1862671561539 -0.0699541946928175
28.2067410945892 0.0207008149531884
28.2272150330245 0.085336612164584
28.2476889714599 -0.0518280530586308
28.2681629098952 0.00764431928354359
28.2886368483305 -0.0357254374755591
28.3091107867658 -0.0100623233359389
28.3295847252011 0.00260241170240438
28.3500586636364 -0.0393978990271961
28.3705326020718 -0.0540320055247405
28.3910065405071 0.0385530270798231
28.4114804789424 0.112931347249776
28.4319544173777 -0.00277204501488093
28.452428355813 0.214880350285852
28.4729022942483 0.153909366485307
28.4933762326837 0.275252503583484
28.513850171119 0.288545178247052
28.5343241095543 0.335714473809343
28.5547980479896 0.343843723603689
28.5752719864249 0.345485010963426
28.5957459248602 0.481263335888551
28.6162198632956 0.544147448379066
28.6366938017309 0.469033181768304
28.6571677401662 0.474670536056265
28.6776416786015 0.342309511242949
28.6981156170368 0.301116773995023
28.7185895554721 0.319842324312485
28.7390634939075 0.231819495528671
28.7595374323428 0.171162870976913
28.7800113707781 0.260268283990545
28.8004853092134 0.220489901236232
28.8209592476487 0.32656730604731
28.841433186084 0.303760915090443
28.8619071245193 0.517956145032299
28.8823810629547 0.607173829206212
28.90285500139 0.743288967612181
28.9233289398253 1.06432239358354
28.9438028782606 1.67053452378695
28.9642768166959 2.10880035822242
28.9847507551312 2.37391156355662
29.0052246935666 2.42289938978953
29.0256986320019 2.32347217025451
29.0461725704372 2.27224448828487
29.0666465088725 2.05958092721395
29.0871204473078 1.76751273704176
29.1075943857431 1.41036283443496
29.1280683241785 1.09229788606021
29.1485422626138 0.878422058584189
29.1690162010491 0.751808268673555
29.1894901394844 0.54839401632831
29.2099640779197 0.572866801548455
29.230438016355 0.34866412433399
29.2509119547904 0.344535984684914
29.2713858932257 0.372982382601228
29.291859831661 0.250409568082931
29.3123337700963 0.301036291130024
29.3328077085316 0.306112551742506
29.3532816469669 0.250013349920378
29.3737555854023 0.230394935663639
29.3942295238376 0.249861475638957
29.4147034622729 0.243308803179664
29.4351774007082 0.182091084952427
29.4556513391435 0.249802070957247
29.4761252775788 0.333160511194122
29.4965992160141 0.503780988996387
29.5170731544495 0.421819754364042
29.5375470928848 0.454464307297086
29.5580210313201 0.405100064462187
29.5784949697554 0.45992494252601
29.5989689081907 0.55383477482189
29.619442846626 0.550110811349825
29.6399167850614 0.375836385443151
29.6603907234967 0.343511497101866
29.680864661932 0.26954239632597
29.7013386003673 0.290647833115464
29.7218125388026 0.0513590574703473
29.7422864772379 0.131103152723953
29.7627604156733 0.0832655355429495
29.7832343541086 -0.00361212740599859
29.8037082925439 0.0163034972104428
29.8241822309792 0.0323353260589407
29.8446561694145 0.0913583591394946
29.8651301078498 -0.0110544868812286
29.8856040462852 0.0167634546634381
29.9060779847205 -0.03352114955984
29.9265519231558 0.0294979504489392
29.9470258615911 0.0144145046897743
29.9674998000264 -0.0696569035040011
29.9879737384617 -0.0141683159579125
30.008447676897 -0.0276676908464346
30.0289216153324 0.0317720551637664
30.0493955537677 -0.051994911260643
30.069869492203 0.0113959932136702
30.0903434306383 0.0057989352533736
30.1108173690736 0.0848597481917994
30.1312913075089 0.110557598695615
30.1517652459443 0.11023623676482
30.1722391843796 0.204989412399414
30.1927131228149 0.174765042266065
30.2131870612502 0.210969376364772
30.2336609996855 0.204227414695535
30.2541349381208 0.120684990591687
30.2746088765562 0.188206687386563
30.2950828149915 0.276584171746828
30.3155567534268 0.297275777005815
30.3360306918621 0.324500253163526
30.3565046302974 0.347840933553293
30.3769785687327 0.418079068175116
30.3974525071681 0.497454240362329
30.4179264456034 0.509143533448264
30.4384003840387 0.681011530766256
30.458874322474 0.537797815649637
30.4793482609093 0.655023221431742
30.4998221993446 0.579562748112568
30.52029613778 0.669489312358785
30.5407700762153 0.666990414170391
30.5612440146506 0.55774313688072
30.5817179530859 0.637320397156439
30.6021918915212 0.757284694997547
30.6226658299565 0.681958947070711
30.6431397683918 0.821499403375931
30.6636137068272 0.907676897246541
30.6840876452625 1.22043934534921
30.7045615836978 1.41603674768393
30.7250355221331 1.57650035425071
30.7455094605684 1.48828849838288
30.7659833990037 1.3571303467471
30.7864573374391 1.25464048267671
30.8069312758744 1.08706890617172
30.8274052143097 0.868738533898778
30.847879152745 0.793659782524559
30.8683530911803 0.564957652049065
30.8888270296156 0.331069642472293
30.909300968051 0.299027003794244
30.9297749064863 0.240965152681584
30.9502488449216 0.237613255800981
30.9707227833569 0.101471313152435
30.9911967217922 0.0604039080692771
31.0116706602275 0.102692290551509
31.0321445986629 0.15021146059913
31.0526185370982 0.135253084878808
31.0730924755335 0.064327580057209
31.0935664139688 0.0689453628009988
31.1140403524041 -0.0344873168898214
31.1345142908394 0.00402954098474773
31.1549882292748 0.0920480197580402
31.1754621677101 0.0524847860967217
31.1959361061454 -0.0065872433325409
31.2164100445807 -0.0421993185297467
31.236883983016 -0.045236856161563
31.2573579214513 0.01379181311399
31.2778318598866 -0.0430424800450673
31.298305798322 0.0550935976945981
31.3187797367573 0.00481462966631963
31.3392536751926 -0.0233064674632359
31.3597276136279 -0.0396863603607349
31.3802015520632 -0.0300021323595114
31.4006754904985 -0.0150871167928983
31.4211494289339 0.0219857696724377
31.4416233673692 0.0668936103698299
31.4620973058045 0.0532301552992784
31.4825712442398 -0.00207751220588381
31.5030451826751 -0.00267522547898946
31.5235191211104 -0.0683546511867059
31.5439930595458 0.00168903355088368
31.5644669979811 0.0821718391871964
31.5849409364164 0.036375015722232
31.6054148748517 0.0361735631559905
31.625888813287 0.00474456482180541
31.6463627517223 -0.0240578126136572
31.6668366901577 -0.015077319150397
31.687310628593 -0.00867853812174735
31.7077845670283 -0.0113718861943743
31.7282585054636 -0.0153448633682789
31.7487324438989 -0.0245037196434603
31.7692063823342 0.00542237831341441
31.7896803207695 0.0470896805023453
31.8101542592049 0.107008603589999
31.8306281976402 0.096637480909709
31.8511021360755 0.138372145794809
31.8715760745108 0.0720563482452976
31.8920500129461 0.10211717159451
31.9125239513814 0.0644921158424443
31.9329978898168 0.146681180989102
31.9534718282521 0.149465617034483
31.9739457666874 0.0455016739785858
31.9944197051227 0.0587476851547453
32.014893643558 0.135818233896295
32.0353675819933 0.225932070203233
32.0558415204287 0.103828777408895
32.076315458864 0.192685438846612
32.0967893972993 0.22427288784972
32.1172633357346 0.185570291084883
32.1377372741699 0.326577648552103
32.1582112126052 0.272294960251378
32.1786851510406 0.344336809516044
32.1991590894759 0.396869863012765
32.2196330279112 0.48718578740821
32.2401069663465 0.728565832702377
32.2605809047818 0.873614165561934
32.2810548432171 1.35332036932021
32.3015287816525 1.74450736064388
32.3220027200878 2.22295638953294
32.3424766585231 2.69882370598739
32.3629505969584 3.07575514334056
32.3834245353937 3.10375070159246
32.403898473829 3.17343538074307
32.4243724122643 2.93975709745908
32.4448463506997 2.65922626840714
32.465320289135 2.56231164358726
32.4857942275703 2.21672155633277
32.5062681660056 1.889383089977
32.5267421044409 1.62977541118662
32.5472160428762 1.2647214366283
32.5676899813116 1.11974199963536
32.5881639197469 0.982597516874487
32.6086378581822 0.870215071678999
32.6291117966175 0.748740497382235
32.6495857350528 0.816090460650859
32.6700596734881 0.98111912815154
32.6905336119235 1.16439941655094
32.7110075503588 1.3945771591824
32.7314814887941 1.75758985604592
32.7519554272294 1.83937500714149
32.7724293656647 1.74540136246912
32.7929033041 1.71785642202881
32.8133772425354 1.99371935248721
32.8338511809707 1.88418807051101
32.854325119406 1.94525215943353
32.8747990578413 1.94123453592144
32.8952729962766 1.79531228330807
32.9157469347119 1.86034998492676
32.9362208731472 1.79910805744417
32.9566948115826 1.71965941752697
32.9771687500179 1.61679573184183
32.9976426884532 1.56864200038874
33.0181166268885 1.41894822316771
33.0385905653238 1.36302690017874
33.0590645037591 1.29801344808849
33.0795384421945 1.09890786689696
33.1000123806298 1.03003307327082
33.1204863190651 0.945555733876738
33.1409602575004 0.881934182048045
33.1614341959357 0.668595501118074
33.181908134371 0.68965427442016
33.2023820728064 0.506308418620969
33.2228560112417 0.546943350387168
33.243329949677 0.381871569718756
33.2638038881123 0.419947243282399
33.2842778265476 0.382524537744766
33.3047517649829 0.414134703105856
33.3252257034183 0.392381906032335
33.3456996418536 0.355026563190871
33.3661735802889 0.381495757914796
33.3866475187242 0.374133240204111
33.4071214571595 0.421480676725481
33.4275953955948 0.645933900812242
33.4480693340302 0.512336662464391
33.4685432724655 0.357928545015264
33.4890172109008 0.40536579846486
33.5094911493361 0.267929672813178
33.5299650877714 0.219057668060219
33.5504390262067 0.25354145087265
33.570912964642 0.156537271250471
33.5913869030774 0.0816909625270139
33.6118608415127 0.09150252470228
33.632334779948 0.114357374442936
33.6528087183833 0.0369742617489808
33.6732826568186 0.0416448532870823
33.6937565952539 0.11274414905724
33.7142305336893 0.0185013157261205
33.7347044721246 -0.0119169800396097
33.7551784105599 -0.0579378215732838
33.7756523489952 0.0114308552664564
33.7961262874305 0.0430615696715859
33.8166002258658 0.104662654975438
33.8370741643012 -0.0251200554886533
33.8575481027365 0.0612655216126445
33.8780220411718 0.0695485529459987
33.8984959796071 0.0648332051780762
33.9189699180424 -0.00105760502445706
33.9394438564777 0.0684907056717323
33.9599177949131 0.00655105393331135
33.9803917333484 0.0644255230936135
34.0008656717837 -0.0143963035140282
34.021339610219 0.109929324110386
34.0418135486543 0.0402669893001897
34.0622874870896 0.132085442055383
34.082761425525 0.109343015709299
34.1032353639603 0.0801126269286054
34.1237093023956 0.145956775713301
34.1441832408309 0.230052545396719
34.1646571792662 0.173545769312193
34.1851311177015 0.210811447459724
34.2056050561368 0.311901663172644
34.2260789945722 0.32317058311762
34.2465529330075 0.370920290627986
34.2670268714428 0.522859119037075
34.2875008098781 0.591487068344887
34.3079747483134 0.658835388551421
34.3284486867487 0.770476996323345
34.3489226251841 0.830057724993992
34.3693965636194 0.952160907896695
34.3898705020547 0.946682378364787
34.41034444049 0.92299713639827
34.4308183789253 0.965740598663808
34.4512923173606 1.05017318182807
34.471766255796 0.962753219224387
34.4922401942313 0.846709877519427
34.5127141326666 0.88173065671319
34.5331880711019 0.877711390139009
34.5536620095372 0.635433327796885
34.5741359479725 0.662708969686817
34.5946098864079 0.553288315808805
34.6150838248432 0.479046366162849
34.6355577632785 0.519410204082283
34.6560317017138 0.447817329567106
34.6765056401491 0.300726075950652
34.6969795785844 0.355480193232921
34.7174535170197 0.242288014747246
34.7379274554551 0.252816207160294
34.7584013938904 0.195658520472065
34.7788753323257 0.164564954682559
34.799349270761 0.111358426458442
34.8198232091963 0.167549352466382
34.8402971476316 0.162564816039711
34.860771086067 0.050831900511763
34.8812450245023 0.0328714392158709
34.9017189629376 0.104777182152035
34.9221929013729 0.0725387126535886
34.9426668398082 -0.0365002192794677
34.9631407782435 0.110993719686199
34.9836147166789 0.0592913628839207
35.0040886551142 0.0570906269803662
35.0245625935495 0.0679331786422013
35.0450365319848 0.0814023512027588
35.0655104704201 0.00895647799537258
35.0859844088554 0.0537205590200429
35.1064583472908 0.0959029276101024
35.1269322857261 -0.0181422495677817
35.1474062241614 0.0761683608197241
35.1678801625967 0.0585222587726186
35.188354101032 0.0109506942909032
35.2088280394673 0.061057834041244
35.2293019779027 0.0564999280236407
35.249775916338 -0.00402510709523951
35.2702498547733 0.145107728684603
35.2907237932086 0.138013018696502
35.3111977316439 0.172607429607124
35.3316716700792 0.134307628083135
35.3521456085145 0.123374030791202
35.3726195469499 0.117671221064659
35.3930934853852 0.100272115570172
35.4135674238205 0.184457964307742
35.4340413622558 0.131947517277367
35.4545153006911 -0.0025717255209512
35.4749892391264 -0.0237872640872132
35.4954631775618 0.0136134015785807
35.5159371159971 0.0575469381430977
35.5364110544324 0.0324925122730044
35.5568849928677 -0.005560292698366
35.577358931303 0.00719060656231929
35.5978328697383 -0.0230047899449386
35.6183068081737 -0.0128131488868073
35.638780746609 -0.0416615535966198
35.6592546850443 0.0128310168748484
35.6797286234796 0.0269814582450394
35.7002025619149 -0.0473873128193802
35.7206765003502 -0.0214732129850765
35.7411504387856 0.0487341744146161
35.7616243772209 -0.0333797339536346
35.7820983156562 0.00432047857683715
35.8025722540915 -0.042592271327301
35.8230461925268 0.00296534966728346
35.8435201309621 0.00427459156059062
35.8639940693974 -0.00741454564737931
35.8844680078328 -0.0412166452899594
35.9049419462681 -0.0321488214177661
35.9254158847034 -0.00222520998018338
35.9458898231387 0.00167918902278896
35.966363761574 -0.0751231244088488
35.9868377000093 0.0733574330582361
36.0073116384447 -0.0450666385759562
36.02778557688 -0.0410724226447592
36.0482595153153 0.0149458447576958
36.0687334537506 0.0228094830588734
36.0892073921859 0.0372059922587742
36.1096813306212 -0.00436462764260215
36.1301552690566 0.0296080400214109
36.1506292074919 0.0388635785841467
36.1711031459272 0.00517282137893904
36.1915770843625 -0.0363079815942127
36.2120510227978 -0.00745383033530822
36.2325249612331 -0.0137334748443474
36.2529988996685 -0.0408239984546637
36.2734728381038 -0.00469555799609078
36.2939467765391 -0.0206279966387948
36.3144207149744 0.0285661856172239
36.3348946534097 0.000959905438632225
36.355368591845 0.0853552461587634
36.3758425302804 0.0356584577776176
36.3963164687157 0.0784320402951944
36.416790407151 0.0274780770448273
36.4372643455863 0.140609068026517
36.4577382840216 0.176939596573595
36.4782122224569 0.0635529960193972
36.4986861608922 0.097324266363922
36.5191600993276 0.118097157607169
36.5396340377629 0.148007086415806
36.5601079761982 0.241741552789833
36.5805819146335 0.218310973395915
36.6010558530688 0.302975764900721
36.6215297915041 0.267871343970916
36.6420037299395 0.330445627273168
36.6624776683748 0.385229864807475
36.6829516068101 0.496026139907172
36.7034255452454 0.539136535905592
36.7238994836807 0.575758969469401
36.744373422116 0.504330940598601
36.7648473605514 0.556623282626522
36.7853212989867 0.623260995553167
36.805795237422 0.505025329378535
36.8262691758573 0.523530867435958
36.8467431142926 0.466538026392105
36.8672170527279 0.396546806246975
36.8876909911633 0.402098873667234
36.9081649295986 0.352985895319549
36.9286388680339 0.316916204537254
36.9491128064692 0.0946710513203479
36.9695867449045 0.181042102335498
36.9900606833398 0.135925190916038
37.0105346217752 0.163747400395301
37.0310085602105 0.237164980773287
37.0514824986458 0.305396682049996
37.0719564370811 0.287713337558761
37.0924303755164 0.167187863966248
37.1129043139517 0.158664011272459
37.133378252387 0.223079279477393
37.1538521908224 0.171631585247715
37.1743261292577 0.191820928583428
37.194800067693 0.15083480948453
37.2152740061283 0.139819061284355
37.2357479445636 0.104086183982903
37.2562218829989 0.0866049275801732
37.2766958214343 0.0274794587428338
37.2971697598696 -0.0407381391957831
37.3176436983049 0.0473167170976563
37.3381176367402 0.0416440276231516
37.3585915751755 0.0919833757140367
37.3790655136108 0.0199493447036445
37.3995394520462 0.0924690179253087
37.4200133904815 0.0556361453790288
37.4404873289168 -0.0202367729351947
37.4609612673521 0.0575585963159715
37.4814352057874 0.0546472531325268
37.5019091442227 0.049154197514472
37.5223830826581 0.0449856794618064
37.5428570210934 0.0812041989745307
37.5633309595287 0.125257672719311
37.583804897964 0.0573544340294809
37.6042788363993 0.175671566238373
37.6247527748346 0.167709069345989
37.6452267132699 0.110289860018995
37.6657006517053 0.239091021590723
37.6861745901406 0.278070887394507
37.7066485285759 0.279312790763681
37.7271224670112 0.322243815031577
37.7475964054465 0.288374376864863
37.7680703438818 0.341766976263539
37.7885442823172 0.324869529894271
37.8090182207525 0.414765371090393
37.8294921591878 0.38358991651857
37.8499660976231 0.447488999512137
37.8704400360584 0.365577203404427
37.8909139744937 0.502437861528773
37.9113879129291 0.514320973885176
37.9318618513644 0.579611957140301
37.9523357897997 0.713935811294149
37.972809728235 0.86260503634672
37.9932836666703 1.17145296563135
38.0137576051056 1.22251084914803
38.034231543541 1.5053620202301
38.0547054819763 1.83641272887757
38.0751794204116 2.16357964175709
38.0956533588469 2.54155025886866
38.1161272972822 2.94949124687896
38.1366012357175 3.17516302245465
38.1570751741529 3.55840933559572
38.1775491125882 3.72943851963552
38.1980230510235 3.75205265790738
38.2184969894588 3.87364758374462
38.2389709278941 3.58250454714726
38.2594448663294 3.57263396478195
38.2799188047647 3.37658791998203
38.3003927432001 3.20269974608083
38.3208666816354 2.89341735974503
38.3413406200707 2.52035534430794
38.361814558506 2.43247203310291
38.3822884969413 2.17143409279661
38.4027624353766 1.98073110672236
38.423236373812 1.58952974154684
38.4437103122473 1.33376749727003
38.4641842506826 1.05198604055862
38.4846581891179 1.07361245474593
38.5051321275532 0.748907156498627
38.5256060659885 0.649484729150049
38.5460800044239 0.521438922700194
38.5665539428592 0.363467653815728
38.5870278812945 0.352654255829985
38.6075018197298 0.279363312076298
38.6279757581651 0.122761489221334
38.6484496966004 0.153682120598427
38.6689236350358 0.170302289540909
38.6893975734711 0.143976162715447
38.7098715119064 0.082516240122041
38.7303454503417 0.0718600217606915
38.750819388777 0.00263250763139844
38.7712933272123 0.00373994773416109
38.7917672656477 0.0348177587356469
38.812241204083 -0.010904892697478
38.8327151425183 -0.0188446732318797
38.8531890809536 -0.0462932495342254
38.8736630193889 0.0929472950621519
38.8941369578242 0.0264811272239185
38.9146108962595 -0.0126188363822586
38.9350848346949 -0.000915095756379269
38.9555587731302 -0.0191368175651105
38.9760327115655 0.0446951648582146
38.9965066500008 0.0278204348469286
39.0169805884361 -0.0333026742656337
39.0374545268714 0.0110654208538594
39.0579284653068 -0.0422002797945911
39.0784024037421 0.016535640455682
39.0988763421774 -0.0236643183953229
39.1193502806127 0.0155852603190623
39.139824219048 0.0639718765988366
39.1602981574833 -0.0321503028893326
39.1807720959187 -0.0488229448121125
39.201246034354 0.0306883068776393
39.2217199727893 -0.0369134038672194
39.2421939112246 0.00878858961997819
39.2626678496599 -0.0600702959941017
39.2831417880952 0.00260368929054167
39.3036157265306 -0.00761653785942573
39.3240896649659 -0.0204184774440033
39.3445636034012 -0.0735625461298579
39.3650375418365 0.0204979791736963
39.3855114802718 -0.0403669579573598
39.4059854187071 -0.00355319085635974
39.4264593571424 0.0293767804766965
39.4469332955778 0.042797956041809
39.4674072340131 0.0119707525056438
39.4878811724484 0.0658014198682024
39.5083551108837 0.00376912479614999
39.528829049319 -0.0308969660438461
39.5493029877543 -0.0303843526517857
39.5697769261897 0.00530696497233052
39.590250864625 -0.0657500965048303
39.6107248030603 -0.00840580786278733
39.6311987414956 0.0268255183446455
39.6516726799309 -0.0811498678825322
39.6721466183662 0.049178450122346
39.6926205568016 -0.0939082776407192
39.7130944952369 6.61549493807811E-06
39.7335684336722 -0.0024102038040148
39.7540423721075 -0.010012902204245
39.7745163105428 -0.0423327297057523
39.7949902489781 -0.0301952267807855
39.8154641874135 0.0666001470429043
39.8359381258488 0.0227929750986502
39.8564120642841 0.021977007386452
39.8768860027194 -0.0217852560936898
39.8973599411547 0.0256207679915583
39.91783387959 -0.0949195036911377
39.9383078180254 0.0241460121915555
39.9587817564607 -0.139318101027028
39.979255694896 -0.0445000195068621
39.9997296333313 0
