'Id: "" Comment: "" Operator: "Lab Manager" Anode: "Cu" Scantype: "Coupled TwoTheta/Theta" TimePerStep: "768" 
2.00009989738464 0
2.02057383581996 -0.0230213874793677
2.04104777425528 0.0542364045601902
2.06152171269059 -0.101559957214657
2.08199565112591 -0.0678402218234826
2.10246958956122 0.110429526419953
2.12294352799654 -0.0980007124843514
2.14341746643186 -0.0824538552030605
2.16389140486717 0.00477419646712285
2.18436534330249 -0.0147498223437657
2.2048392817378 -0.051182161635726
2.22531322017312 0.131154261924575
2.24578715860844 0.034863615003804
2.26626109704375 -0.00672076906470576
2.28673503547907 -0.0469843069476212
2.30720897391438 -0.0807186653116085
2.3276829123497 -0.140316004467591
2.34815685078502 0.128230419228687
2.36863078922033 0.0595560224438936
2.38910472765565 -0.00909961148863925
2.40957866609097 -0.0308614825689109
2.43005260452628 -0.0799483407969204
2.4505265429616 -0.0206631355606106
2.47100048139691 0.132390832527962
2.49147441983223 0.159161480135462
2.51194835826755 -0.0744657760714436
2.53242229670286 0.0890611472405789
2.55289623513818 -0.122393166595137
2.57337017357349 -0.0895253457576715
2.59384411200881 0.181642487932055
2.61431805044413 -0.0797229988592898
2.63479198887944 0.0586698605349598
2.65526592731476 -0.0372935172185294
2.67573986575007 -0.0329777154530913
2.69621380418539 -0.132809817502058
2.71668774262071 0.0270010730621761
2.73716168105602 -0.0918151068546624
2.75763561949134 -0.0139979405859059
2.77810955792665 -0.0181932614648881
2.79858349636197 0.135182263841724
2.81905743479729 0.0555036353339302
2.8395313732326 -0.0202499803216014
2.86000531166792 0.00427558354179425
2.88047925010324 -0.033680089742548
2.90095318853855 -0.111981583507962
2.92142712697387 0.0623398522455503
2.94190106540918 0.00490921751799167
2.9623750038445 -0.0316693210239718
2.98284894227982 -0.0708332633803419
3.00332288071513 -0.0657076095511169
3.02379681915045 0.0357909737970372
3.04427075758576 0.0435583199974516
3.06474469602108 -0.0541243209498727
3.0852186344564 0.0513368009550641
3.10569257289171 -0.151777064287737
3.12616651132703 -0.0462784166782786
3.14664044976234 0.0683535771167758
3.16711438819766 0.0124314170974253
3.18758832663298 -0.104669896736332
3.20806226506829 0.0178308856155063
3.22853620350361 0.0557150141529403
3.24901014193892 0.0532533222093008
3.26948408037424 -0.0559604402154115
3.28995801880956 -0.0258325231211938
3.31043195724487 0.0316579068252834
3.33090589568019 0.0943754329573565
3.35137983411551 -0.0329924447249761
3.37185377255082 -0.0457582262217144
3.39232771098614 0.0990468384671424
3.41280164942145 -0.0321710006584066
3.43327558785677 -0.0188388269316944
3.45374952629209 -0.0380399736860548
3.4742234647274 0.145902642411848
3.49469740316272 -0.121958895304656
3.51517134159803 0.124521246497769
3.53564528003335 0.0272701511524529
3.55611921846867 -0.1871496813406
3.57659315690398 0.0515742490186089
3.5970670953393 0.0325044422300778
3.61754103377461 0.105901314960476
3.63801497220993 0.088171117209801
3.65848891064525 0.166813848978054
3.67896284908056 0.0319336769319012
3.69943678751588 0.0585306010713449
3.71991072595119 0.017437954729715
3.74038466438651 0.135218237907013
3.76085860282183 0.0420797839365727
3.78133254125714 -0.0445294905149396
3.80180647969246 0.18919249788581
3.82228041812778 0.0388186658054872
3.84275435656309 -0.0295051534225745
3.86322829499841 0.071460623534958
3.88370223343372 0.141195163344753
3.90417617186904 0.209646382673474
3.92465011030436 0.0593663648544576
3.94512404873967 0.129157193221037
3.96559798717499 0.0466230344398761
3.9860719256103 0.15290972184431
4.00654586404562 0.113381838767672
4.02701980248094 0.305643551876629
4.04749374091625 0.227090694504513
4.06796767935157 0.306108683317992
4.08844161778688 0.310926684983732
4.1089155562222 0.201180116168402
4.12938949465752 0.355775226871998
4.14986343309283 0.269503683761189
4.17033737152815 0.234032153502641
4.19081130996346 0.142589802763021
4.21128524839878 0.433978714875663
4.2317591868341 0.260542639840566
4.25223312526941 0.291552410991064
4.27270706370473 0.217112194993823
4.29318100214005 0.335399075182177
4.31365494057536 0.249277634889458
4.33412887901068 0.341560374115667
4.35460281744599 0.248966042860805
4.37507675588131 0.317848807791536
4.39555069431663 0.358104502241196
4.41602463275194 0.358014376209785
4.43649857118726 0.383984679697301
4.45697250962257 0.326640412703743
4.47744644805789 0.339627408562449
4.49792038649321 0.421643583940083
4.51839432492852 0.24326185550331
4.53886826336384 0.390419723252132
4.55934220179915 0.369627603853216
4.57981614023447 0.397031330639894
4.60029007866979 0.322891320278835
4.6207640171051 0.312572156103368
4.64123795554042 0.259303004780164
4.66171189397573 0.323240116309221
4.68218583241105 0.440581407357206
4.70265977084637 0.468097711257451
4.72313370928168 0.494330694676625
4.743607647717 0.44636369094806
4.76408158615232 0.398415450071758
4.78455552458763 0.437725555381049
4.80502946302295 0.583825256875935
4.82550340145826 0.371870804556415
4.84597733989358 0.573997615089157
4.8664512783289 0.601664021807494
4.88692521676421 0.469192941378092
4.90739915519953 0.56720937380095
4.92787309363484 0.484254985742737
4.94834703207016 0.471631860536785
4.96882097050548 0.440798331516429
4.98929490894079 0.536285648681666
5.00976884737611 0.531531312032498
5.03024278581142 0.623149904902259
5.05071672424674 0.584578927290947
5.07119066268206 0.626755879198562
5.09166460111737 0.416347427291774
5.11213853955269 0.465072321570578
5.132612477988 0.502097228701645
5.15308641642332 0.933672148684973
5.17356035485864 0.55536999818723
5.19403429329395 0.59635744387508
5.21450823172927 0.669915735748525
5.23498217016459 0.613284457140898
5.2554561085999 0.5670886080522
5.27593004703522 0.571692771815761
5.29640398547053 0.700013615098252
5.31687792390585 0.734603221233003
5.33735186234117 0.829107423553349
5.35782580077648 0.820765805392623
5.3782997392118 0.820255450084159
5.39877367764711 0.694763857627956
5.41924761608243 0.799759778024014
5.43972155451775 0.821441127939001
5.46019549295306 0.879599574039581
5.48066943138838 0.849235116325756
5.50114336982369 0.84493108813086
5.52161730825901 0.801583322788225
5.54209124669433 1.01736890363118
5.56256518512964 0.897235747326404
5.58303912356496 0.889100520540553
5.60351306200027 1.11535905660696
5.62398700043559 1.01090718885897
5.64446093887091 1.11480741729657
5.66493487730622 1.03773682525309
5.68540881574154 1.15209124606188
5.70588275417686 1.17401651305626
5.72635669261217 1.42122095956957
5.74683063104749 1.23094416893515
5.7673045694828 1.54198822448631
5.78777850791812 1.81398854288974
5.80825244635344 1.6823617908121
5.82872638478875 1.56637880158672
5.84920032322407 1.58583124188026
5.86967426165938 1.6691045283594
5.8901482000947 1.8188028276908
5.91062213853002 1.8213844732078
5.93109607696533 1.83830779824372
5.95157001540065 2.18858321946524
5.97204395383596 2.18731490353902
5.99251789227128 2.58580493379839
6.0129918307066 2.72780331024336
6.03346576914191 3.23700794954059
6.05393970757723 3.48581468502342
6.07441364601254 4.32187976669184
6.09488758444786 5.07983861121252
6.11536152288318 5.63989955191879
6.13583546131849 6.95909383881067
6.15630939975381 8.20669230522146
6.17678333818913 8.26290328448452
6.19725727662444 7.96496635993318
6.21773121505976 6.64230861490076
6.23820515349507 4.9368571327206
6.25867909193039 3.95147649672604
6.27915303036571 3.30335420691707
6.29962696880102 2.72165692996037
6.32010090723634 2.42383258252259
6.34057484567165 2.08696449793707
6.36104878410697 1.64985475953715
6.38152272254229 1.64114920065615
6.4019966609776 1.65199365462742
6.42247059941292 1.46884645478428
6.44294453784823 1.55004093446007
6.46341847628355 1.54922292698812
6.48389241471887 1.52498618236844
6.50436635315418 1.53592445060101
6.5248402915895 1.77995439835251
6.54531423002481 1.55264894228961
6.56578816846013 1.33968516574563
6.58626210689545 1.08116723538725
6.60673604533076 1.12865765121446
6.62720998376608 1.0225209965606
6.6476839222014 1.13515310475901
6.66815786063671 0.984783142476337
6.68863179907203 0.943806943045928
6.70910573750734 1.08904742313445
6.72957967594266 1.0142545827419
6.75005361437798 1.01760550520161
6.77052755281329 0.937641857180243
6.79100149124861 0.789988638677807
6.81147542968392 0.9848020996943
6.83194936811924 0.902290573563054
6.85242330655456 0.899224893617403
6.87289724498987 0.853209226524013
6.89337118342519 0.959556072282884
6.9138451218605 0.892744597560684
6.93431906029582 0.827253969024078
6.95479299873114 0.825584186673066
6.97526693716645 1.07132900050765
6.99574087560177 0.952509243861161
7.01621481403708 0.751677000066934
7.0366887524724 0.761801019124968
7.05716269090772 0.783662551035262
7.07763662934303 0.896688679131152
7.09811056777835 0.917285653412637
7.11858450621367 0.928786807213049
7.13905844464898 0.73978589053239
7.1595323830843 0.93752248670399
7.18000632151961 0.77850701239452
7.20048025995493 0.818729050937312
7.22095419839025 0.700115685665697
7.24142813682556 0.732562749913011
7.26190207526088 0.854872327012585
7.28237601369619 0.754544416964421
7.30284995213151 0.658141519768519
7.32332389056683 0.869049052091544
7.34379782900214 0.753152430600164
7.36427176743746 0.768784988627711
7.38474570587277 0.831311309507521
7.40521964430809 0.831356393239591
7.42569358274341 0.753295239823923
7.44616752117872 0.85624243259385
7.46664145961404 0.770406304882704
7.48711539804935 0.999693106690486
7.50758933648467 1.0323840880172
7.52806327491999 1.1210834155295
7.5485372133553 0.979332755894068
7.56901115179062 1.11624669244423
7.58948509022594 0.897710641846651
7.60995902866125 1.18830793743467
7.63043296709657 0.972413579208279
7.65090690553188 1.13023590050082
7.6713808439672 1.03807698464562
7.69185478240252 1.02927016497601
7.71232872083783 0.931940441492004
7.73280265927315 0.986973230860256
7.75327659770846 0.920931033080769
7.77375053614378 0.986418014820209
7.7942244745791 0.768069592745245
7.81469841301441 0.864844100189207
7.83517235144973 0.929085287152098
7.85564628988504 0.956886903633917
7.87612022832036 0.799811449634664
7.89659416675568 0.953952675154339
7.91706810519099 1.02347724685961
7.93754204362631 1.00187474808381
7.95801598206162 0.930811845493598
7.97848992049694 1.27252812242232
7.99896385893226 1.41634649553663
8.01943779736757 1.49377738150321
8.03991173580289 1.64804994698871
8.06038567423821 2.18645585865981
8.08085961267352 2.23529719984984
8.10133355110884 2.49118855389213
8.12180748954415 2.86428617078668
8.14228142797947 3.24130880053349
8.16275536641479 3.89048560979922
8.1832293048501 4.66988951525056
8.20370324328542 5.33603093355415
8.22417718172073 6.63109736471001
8.24465112015605 8.32852630871812
8.26512505859137 9.86842193224517
8.28559899702668 12.1713571519578
8.306072935462 14.6500923845227
8.32654687389731 17.1991588799399
8.34702081233263 21.4214212215426
8.36749475076795 26.207504409331
8.38796868920326 30.5209501099716
8.40844262763858 34.5896229067978
8.42891656607389 32.5046686331429
8.44939050450921 22.984837289007
8.46986444294453 15.1772642910567
8.49033838137984 9.81762672262524
8.51081231981516 7.18977875037942
8.53128625825047 5.55283495765253
8.55176019668579 4.43413909444457
8.57223413512111 3.5433265774222
8.59270807355642 2.92987657325209
8.61318201199174 2.56644533193424
8.63365595042706 2.15615785346866
8.65412988886237 1.94640997118867
8.67460382729769 1.80178501842761
8.695077765733 1.54129341185214
8.71555170416832 1.63759140146227
8.73602564260364 1.83937690392465
8.75649958103895 1.67138950257264
8.77697351947427 1.63493128073955
8.79744745790958 1.43442932175872
8.8179213963449 1.48655029229682
8.83839533478022 1.67150252568718
8.85886927321553 1.5517860219298
8.87934321165085 1.26542161435802
8.89981715008616 1.42569055297183
8.92029108852148 1.38415533777124
8.9407650269568 1.17987846875624
8.96123896539211 1.12145369592683
8.98171290382743 1.11773518594969
9.00218684226274 0.947368772158142
9.02266078069806 0.834312787885523
9.04313471913338 0.846275566465164
9.06360865756869 0.591330024563733
9.08408259600401 0.59291366218123
9.10455653443933 0.504672312650988
9.12503047287464 0.610460142639674
9.14550441130996 0.488402152147288
9.16597834974527 0.398915007840495
9.18645228818059 0.399290376385966
9.20692622661591 0.281194924450364
9.22740016505122 0.370149485367023
9.24787410348654 0.345841559135944
9.26834804192185 0.358010729090458
9.28882198035717 0.449625745230569
9.30929591879249 0.404540774222939
9.3297698572278 0.250099566067572
9.35024379566312 0.304010454097799
9.37071773409843 0.26549218831362
9.39119167253375 0.33115935204837
9.41166561096907 0.32262652863538
9.43213954940438 0.203435384741319
9.4526134878397 0.31082550369952
9.47308742627501 0.302348968843314
9.49356136471033 0.178005780172704
9.51403530314565 0.219045937687688
9.53450924158096 0.198906941388266
9.55498318001628 0.159255457941106
9.5754571184516 0.0935810706795408
9.59593105688691 0.10735252960357
9.61640499532223 0.0365073347131939
9.63687893375754 0.0906809026750786
9.65735287219286 0.103206566822558
9.67782681062818 -0.00404067284436715
9.69830074906349 0.177793350340969
9.71877468749881 0.105739886378565
9.73924862593412 0.171726018601757
9.75972256436944 0.0267934136772099
9.78019650280476 -0.0152558450617426
9.80067044124007 0.0664115757182331
9.82114437967539 -0.0654439073161974
9.8416183181107 -0.0254056274983654
9.86209225654602 -0.0452444181616065
9.88256619498134 0.0651438873607475
9.90304013341665 0.106540539068696
9.92351407185197 0.0620184536289066
9.94398801028728 0.16725471437471
9.9644619487226 0.14099932130611
9.98493588715792 0.157731441089771
10.0054098255932 0.394534407059025
10.0258837640285 0.561043635880542
10.0463577024639 0.713248710887653
10.0668316408992 1.06078504874702
10.0873055793345 1.44089223279199
10.1077795177698 1.08403901302255
10.1282534562051 0.585277472772043
10.1487273946404 0.330024278707128
10.1692013330758 0.173748180827807
10.1896752715111 0.0604595958007468
10.2101492099464 0.0695856069592811
10.2306231483817 -0.0371550356965895
10.251097086817 -0.176428998833532
10.2715710252523 0.0336007680834927
10.2920449636877 -0.0545277854805541
10.312518902123 0.0201228404743263
10.3329928405583 -0.0901036040518646
10.3534667789936 0.0601053809408727
10.3739407174289 -0.0344585378807958
10.3944146558642 -0.03004536051687
10.4148885942996 0.0616261630326509
10.4353625327349 0.1637331161011
10.4558364711702 0.170806748688476
10.4763104096055 0.348472060794781
10.4967843480408 0.42980196908668
10.5172582864761 0.568442306897508
10.5377322249115 0.966215990893929
10.5582061633468 1.06452927107595
10.5786801017821 0.869892564110224
10.5991540402174 0.718243369996762
10.6196279786527 0.263227522068896
10.640101917088 0.310834603659958
10.6605758555233 0.109762531436614
10.6810497939587 0.257667555398865
10.701523732394 0.343091342213377
10.7219976708293 0.364731808546818
10.7424716092646 0.379880621065853
10.7629455476999 0.253121113103815
10.7834194861352 0.160234534660706
10.8038934245706 0.149397969069858
10.8243673630059 0.0331114163312711
10.8448413014412 0.0040832097782797
10.8653152398765 0.0466883494108821
10.8857891783118 0.00207266856241262
10.9062631167471 0.0681528338995383
10.9267370551825 0.0730538454222573
10.9472109936178 0.0988069531305724
10.9676849320531 0.118068407024481
10.9881588704884 0.133442373770651
11.0086328089237 0.0954496867024162
11.029106747359 0.000184095819776076
11.0495806857944 0.106760184456063
11.0700546242297 -0.0965407973887209
11.090528562665 0.0400207336187557
11.1110025011003 0.0815489441451609
11.1314764395356 0.17127300085716
11.1519503779709 0.0331512370880875
11.1724243164063 0.0226524028379429
11.1928982548416 0.040818164773393
11.2133721932769 -0.00349731043889534
11.2338461317122 -0.0503981894655894
11.2543200701475 0.181365527693311
11.2747940085828 0.0160125910378057
11.2952679470181 0.173595083901228
11.3157418854535 0.09551925628358
11.3362158238888 0.189337191518193
11.3566897623241 0.227184306271733
11.3771637007594 0.246821017210867
11.3976376391947 0.332882741002264
11.41811157763 0.430681977645921
11.4385855160654 0.34881247714184
11.4590594545007 0.621128406156688
11.479533392936 0.562733931357129
11.5000073313713 0.562951969409832
11.5204812698066 0.314490853648128
11.5409552082419 0.0725589174053543
11.5614291466773 0.110593660681508
11.5819030851126 -0.0479674165234112
11.6023770235479 0.0330736024572653
11.6228509619832 0.133664634290202
11.6433249004185 -0.0495797376912659
11.6637988388538 -0.0283782634871388
11.6842727772892 -0.0761684430974179
11.7047467157245 0.0253113463232189
11.7252206541598 0.14764323192945
11.7456945925951 0.0538480470546103
11.7661685310304 0.104602875032031
11.7866424694657 0.152772299195046
11.807116407901 0.160595902876989
11.8275903463364 0.154115352744528
11.8480642847717 0.0786431487976604
11.868538223207 0.0995438743697208
11.8890121616423 0.00848419612737672
11.9094861000776 0.239057864070626
11.9299600385129 0.278244044866137
11.9504339769483 0.195053155180577
11.9709079153836 0.338443528347277
11.9913818538189 0.170654747699573
12.0118557922542 0.346634729904129
12.0323297306895 0.36768555829428
12.0528036691248 0.518963482870026
12.0732776075602 0.407239336964699
12.0937515459955 0.497356870578301
12.1142254844308 0.459889000377498
12.1346994228661 0.635981559695622
12.1551733613014 0.89151996519934
12.1756472997367 0.82285838355532
12.1961212381721 0.876611398096896
12.2165951766074 0.788456092157398
12.2370691150427 0.758913299070162
12.257543053478 0.53147260216852
12.2780169919133 0.513686084785807
12.2984909303486 0.441230830255355
12.318964868784 0.357075588577164
12.3394388072193 0.341949526417902
12.3599127456546 0.265644310444234
12.3803866840899 0.197170357322827
12.4008606225252 0.120902667053681
12.4213345609605 0.23736207297013
12.4418084993958 0.175454825072174
12.4622824378312 0.194295506693145
12.4827563762665 0.142842451166378
12.5032303147018 0.146095658491872
12.5237042531371 0.129836378669627
12.5441781915724 0.125314611699645
12.5646521300077 0.0700303575819228
12.5851260684431 0.0564315329831286
12.6056000068784 -0.0209506120967373
12.6260739453137 -0.042324410991009
12.646547883749 0.139445552966981
12.6670218221843 0.0647238631105655
12.6874957606196 0.0694480194397444
12.707969699055 -0.0117465613788141
12.7284436374903 0.128431787321554
12.7489175759256 0.13842056554085
12.7693915143609 0.0781156066124082
12.7898654527962 0.12069399386956
12.8103393912315 0.223186977312307
12.8308133296669 0.321792473607315
12.8512872681022 0.454270899421252
12.8717612065375 0.53208058808745
12.8922351449728 0.783086122939242
12.9127090834081 1.02760000397663
12.9331830218434 1.21484098119961
12.9536569602787 1.37215280460819
12.9741308987141 1.45656672420236
12.9946048371494 1.38865565664879
13.0150787755847 1.09550293528081
13.03555271402 0.86356689343177
13.0560266524553 0.643368364434985
13.0765005908906 0.528657348290463
13.096974529326 0.337142178331534
13.1174484677613 0.297989521224868
13.1379224061966 0.391668126970462
13.1583963446319 0.340834245568318
13.1788702830672 0.327779543685101
13.1993442215025 0.360316521320813
13.2198181599379 0.641570178475452
13.2402920983732 0.590811348482353
13.2607660368085 0.795279614674849
13.2812399752438 0.899506227052939
13.3017139136791 1.15088701894996
13.3221878521144 1.19525532369924
13.3426617905498 1.27349655796744
13.3631357289851 1.20722530508791
13.3836096674204 1.37925406506064
13.4040836058557 1.1593745045523
13.424557544291 1.18039912356289
13.4450314827263 1.1962341720924
13.4655054211617 1.40740048347417
13.485979359597 1.05348139104154
13.5064532980323 1.08499772812784
13.5269272364676 0.813147411399735
13.5474011749029 0.516576274190555
13.5678751133382 0.54945098316697
13.5883490517735 0.49770903832898
13.6088229902089 0.369162939676583
13.6292969286442 0.196364770543116
13.6497708670795 0.281397864261909
13.6702448055148 0.149001804166298
13.6907187439501 0.20933284025628
13.7111926823854 0.0743701391985243
13.7316666208208 0.158176200993029
13.7521405592561 0.0623135256397962
13.7726144976914 0.130532113138824
13.7930884361267 0.11934238015678
13.813562374562 -0.0728181733063362
13.8340363129973 0.0436337860828084
13.8545102514327 0.0676565916575487
13.874984189868 0.104718993417883
13.8954581283033 0.0506543246971454
13.9159320667386 0.0955667521620023
13.9364060051739 -0.0561166408542131
13.9568799436092 0.124249978981833
13.9773538820446 0.131458278336808
13.9978278204799 -0.0436063261226236
14.0183017589152 0.0365561656035398
14.0387756973505 0.0867895035152984
14.0592496357858 0.0576145209459833
14.0797235742211 0.0675208012289312
14.1001975126565 0.115206261030806
14.1206714510918 0.0965042336849433
14.1411453895271 0.083029302524674
14.1616193279624 0.0526460508833333
14.1820932663977 0.0326982287609208
14.202567204833 0.077873336157436
14.2230411432683 -0.0357869602604541
14.2435150817037 0.03156108950725
14.263989020139 0.0833029021272154
14.2844629585743 -0.000353189067224147
14.3049368970096 0.00324906592393104
14.3254108354449 0.0498388337673474
14.3458847738802 -0.0519901355369754
14.3663587123156 -0.0105711753223701
14.3868326507509 0.0790436310778304
14.4073065891862 0.223364700330292
14.4277805276215 0.0382774491016811
14.4482544660568 0.151386044058665
14.4687284044921 0.0926384018679101
14.4892023429275 0.311253272529417
14.5096762813628 0.318949406043185
14.5301502197981 0.367028885742547
14.5506241582334 0.287522961627505
14.5710980966687 0.214546217031389
14.591572035104 0.253567401954203
14.6120459735394 0.198857349729277
14.6325199119747 0.144166060356612
14.65299385041 0.0582435338362095
14.6734677888453 0.0752043535014013
14.6939417272806 0.0466110193521874
14.7144156657159 0.0414739480552346
14.7348896041512 0.0910431396105431
14.7553635425866 0.15104776068478
14.7758374810219 0.0418003112779446
14.7963114194572 -0.00883462527662804
14.8167853578925 -0.0412216323122747
14.8372592963278 -0.0514544598289928
14.8577332347631 -0.0265122744934496
14.8782071731985 0.00235492369435519
14.8986811116338 -0.00521744859891271
14.9191550500691 -0.0388127247065855
14.9396289885044 0.180214928704669
14.9601029269397 0.00993842830151959
14.980576865375 0.0219723574172974
15.0010508038104 0.00277504938533601
15.0215247422457 0.0708360875389698
15.041998680681 0.0139158885448647
15.0624726191163 -0.00782929759697915
15.0829465575516 0.0238296957801047
15.1034204959869 0.0372782853427842
15.1238944344223 0.127568554424391
15.1443683728576 0.00303383635825849
15.1648423112929 0.145444964477722
15.1853162497282 0.148551938782779
15.2057901881635 0.113917259273431
15.2262641265988 0.0467492592830103
15.2467380650342 0.000433355478185238
15.2672120034695 -0.0302387854743786
15.2876859419048 -0.0322463302413483
15.3081598803401 0.0100357211772764
15.3286338187754 -0.0101634645518369
15.3491077572107 0.0334581959046441
15.369581695646 0.0054840358800532
15.3900556340814 -0.0198671946256099
15.4105295725167 -0.0334809122790118
15.431003510952 -0.0145237837468191
15.4514774493873 -0.0593499756956981
15.4719513878226 0.0169363452076841
15.4924253262579 -0.0174356543700052
15.5128992646933 -0.010122224428768
15.5333732031286 0.00892871836473175
15.5538471415639 -0.0605432426561747
15.5743210799992 -0.0101661514687175
15.5947950184345 0.063667202571001
15.6152689568698 -0.108574430537019
15.6357428953052 0.00305686587388854
15.6562168337405 -0.0311264081962759
15.6766907721758 0.0844486639191544
15.6971647106111 0.0802508322201794
15.7176386490464 0.111228013373466
15.7381125874817 0.0758177073790134
15.7585865259171 0.00657199757015547
15.7790604643524 -0.0457278660531082
15.7995344027877 0.0907931165092233
15.820008341223 -0.0252713047428506
15.8404822796583 -0.00720237980933014
15.8609562180936 0.0186978079764519
15.8814301565289 -0.0478311580521718
15.9019040949643 0.0653461387714667
15.9223780333996 0.0209901151140324
15.9428519718349 0.0170174376421928
15.9633259102702 -0.0416239769773856
15.9837998487055 -0.0169132954113689
16.0042737871408 -0.0846317676597579
16.0247477255762 0.0174322554161748
16.0452216640115 -0.0653807919889644
16.0656956024468 0.0341165901248242
16.0861695408821 -0.0356380982424591
16.1066434793174 -0.0350615237574812
16.1271174177527 0.039752563579758
16.1475913561881 -0.0742166695640747
16.1680652946234 -0.00327130652231311
16.1885392330587 0.136703236038377
16.209013171494 -0.0305951252153389
16.2294871099293 0.0547294430498737
16.2499610483646 0.071062357500681
16.2704349868 0.156424451470416
16.2909089252353 -0.0329342750409212
16.3113828636706 0.161840344633336
16.3318568021059 0.204289977159855
16.3523307405412 0.136081289205302
16.3728046789765 0.0926309474363434
16.3932786174119 0.170293118519647
16.4137525558472 0.180265719121877
16.4342264942825 0.277496665909703
16.4547004327178 0.379954708883123
16.4751743711531 0.384775264708804
16.4956483095884 0.384406250053413
16.5161222480237 0.356712248250283
16.5365961864591 0.552995342632749
16.5570701248944 0.462838866534142
16.5775440633297 0.609680319954462
16.598018001765 0.955759286227045
16.6184919402003 1.26539868201856
16.6389658786356 1.67141100732899
16.659439817071 2.16989001215836
16.6799137555063 2.49390861317332
16.7003876939416 2.79320639370721
16.7208616323769 2.71361668709336
16.7413355708122 2.17180615999844
16.7618095092475 1.75892064575578
16.7822834476829 1.34735597769871
16.8027573861182 0.875914239160573
16.8232313245535 0.76126209680803
16.8437052629888 0.460430800641082
16.8641792014241 0.420034933993061
16.8846531398594 0.457782830197301
16.9051270782948 0.532007822587137
16.9256010167301 0.641407827829233
16.9460749551654 0.748222429256924
16.9665488936007 0.706618293536876
16.987022832036 0.66112667066909
17.0074967704713 0.432060060653565
17.0279707089067 0.235564296823635
17.048444647342 0.217472712512632
17.0689185857773 0.0587748910538912
17.0893925242126 0.0875958324474113
17.1098664626479 0.0656542866931931
17.1303404010832 0.215606503791236
17.1508143395185 0.0400566504082063
17.1712882779539 0.00384847654410514
17.1917622163892 0.146044482198932
17.2122361548245 -0.00470949929398046
17.2327100932598 0.0112219487320355
17.2531840316951 0.0649325762769792
17.2736579701304 0.0105890500075176
17.2941319085658 -0.0411315467430158
17.3146058470011 -0.051166713974621
17.3350797854364 -0.0572768683539655
17.3555537238717 -0.0269555910797368
17.376027662307 0.0268219490467532
17.3965016007423 0.179576585358838
17.4169755391777 0.0732354011898502
17.437449477613 0.241652563206457
17.4579234160483 0.360609321408659
17.4783973544836 0.505626509129789
17.4988712929189 0.770454126369847
17.5193452313542 0.746238006462165
17.5398191697896 0.412144816073413
17.5602931082249 0.253851638536921
17.5807670466602 0.311723057186024
17.6012409850955 0.0779465720207217
17.6217149235308 0.102001349707681
17.6421888619661 0.0818040569135672
17.6626628004014 0.0603234436383819
17.6831367388368 -0.0705134067845417
17.7036106772721 -0.015133577688538
17.7240846157074 -0.00140165240693957
17.7445585541427 0.103494869060254
17.765032492578 0.0261184867130422
17.7855064310133 -0.0173849661152423
17.8059803694487 -0.0452446560912652
17.826454307884 0.0310810834516402
17.8469282463193 -0.0826785808198602
17.8674021847546 -0.0318312440469612
17.8878761231899 0.0164306889115324
17.9083500616252 0.0256488847222878
17.9288240000606 0.0518129267186374
17.9492979384959 0.176954064900581
17.9697718769312 0.0416972992681202
17.9902458153665 0.0939592964879203
18.0107197538018 0.0329588065599813
18.0311936922371 0.160779162817637
18.0516676306725 0.231326615260888
18.0721415691078 0.119601163889734
18.0926155075431 0.17586322537084
18.1130894459784 0.267300299704208
18.1335633844137 0.267610303556504
18.154037322849 0.351272403594395
18.1745112612844 0.380265766484546
18.1949851997197 0.371517475560292
18.215459138155 0.4604441974883
18.2359330765903 0.496004265601903
18.2564070150256 0.456062263234433
18.2768809534609 0.336711940385891
18.2973548918962 0.395765797056277
18.3178288303316 0.368900916578925
18.3383027687669 0.322523548953834
18.3587767072022 0.267050360847671
18.3792506456375 0.172533435593769
18.3997245840728 0.162670689858795
18.4201985225081 0.234857956976082
18.4406724609435 0.230241070278964
18.4611463993788 0.160538779767441
18.4816203378141 0.0960635854415122
18.5020942762494 0.185252987301178
18.5225682146847 0.232794485346438
18.54304215312 0.203531829577293
18.5635160915554 0.28756918666041
18.5839900299907 0.359906556595788
18.604463968426 0.315075189383426
18.6249379068613 0.461668835023327
18.6454118452966 0.644739576848822
18.6658857837319 0.765329081526578
18.6863597221673 0.923697765723262
18.7068336606026 1.26307479610554
18.7273075990379 1.95012683934008
18.7477815374732 2.44188514542688
18.7682554759085 3.80996429769928
18.7887294143438 5.6103538794906
18.8092033527792 7.49800180746752
18.8296772912145 7.4989497482967
18.8501512296498 6.47908311864481
18.8706251680851 5.32512066851185
18.8910991065204 3.96023948123114
18.9115730449557 2.61230414013603
18.932046983391 2.23443964522652
18.9525209218264 1.73419807983593
18.9729948602617 1.70923569396428
18.993468798697 1.41345873761155
19.0139427371323 1.45624221077775
19.0344166755676 1.20867986346287
19.0548906140029 1.11999044566693
19.0753645524383 0.989653124056574
19.0958384908736 0.736938731965151
19.1163124293089 0.61314935272599
19.1367863677442 0.359170403005756
19.1572603061795 0.374741466137783
19.1777342446148 0.237987542122072
19.1982081830502 0.277033630958622
19.2186821214855 0.244483899314099
19.2391560599208 0.153359180521838
19.2596299983561 0.264076141248506
19.2801039367914 0.143041031494101
19.3005778752267 0.212128851258623
19.3210518136621 0.281235433875408
19.3415257520974 0.144631612677787
19.3619996905327 0.243723637665761
19.382473628968 0.155334425505996
19.4029475674033 0.335193142865159
19.4234215058386 0.328872706409916
19.4438954442739 0.378560616140268
19.4643693827093 0.453006872056215
19.4848433211446 0.379034390824423
19.5053172595799 0.585028589111559
19.5257911980152 0.673854050250957
19.5462651364505 0.670250357575949
19.5667390748858 0.877602927753202
19.5872130133212 0.897474260782716
19.6076869517565 0.892624773331159
19.6281608901918 1.12477321539853
19.6486348286271 1.12256542031816
19.6691087670624 1.18417847142339
19.6895827054977 1.03747695204754
19.7100566439331 1.07178377885729
19.7305305823684 1.45636978518597
19.7510045208037 1.24852663770024
19.771478459239 1.34278558640011
19.7919523976743 1.41883413128557
19.8124263361096 1.76573477235662
19.832900274545 1.57619584294661
19.8533742129803 1.81115484305552
19.8738481514156 1.69066385601669
19.8943220898509 1.63138954849679
19.9147960282862 1.57343608716249
19.9352699667215 1.52722013868044
19.9557439051569 1.47060628638399
19.9762178435922 1.22260494693981
19.9966917820275 1.02410153701455
20.0171657204628 0.950616889941548
20.0376396588981 1.07246350572081
20.0581135973334 1.20604763435233
20.0785875357687 1.10787969250279
20.0990614742041 1.0761367635055
20.1195354126394 1.07956884736048
20.1400093510747 0.839530110734379
20.16048328951 0.900291386960543
20.1809572279453 0.852998509372302
20.2014311663806 0.913797311302988
20.221905104816 0.912114876085937
20.2423790432513 1.17737828705448
20.2628529816866 1.16271254420862
20.2833269201219 1.15848223088168
20.3038008585572 1.03578109707367
20.3242747969925 0.988619559451263
20.3447487354279 1.03392470134778
20.3652226738632 0.840967356096556
20.3856966122985 0.981362107030928
20.4061705507338 0.863963120817561
20.4266444891691 0.801270397456455
20.4471184276044 0.797190186947611
20.4675923660398 1.00927457262436
20.4880663044751 0.940127721153373
20.5085402429104 0.986885049201312
20.5290141813457 1.07793197343485
20.549488119781 1.26404974385398
20.5699620582163 1.45669669379203
20.5904359966516 1.60378948991568
20.610909935087 1.95663021555826
20.6313838735223 2.19490637071977
20.6518578119576 2.69882628873354
20.6723317503929 2.99573371959957
20.6928056888282 3.38901407998453
20.7132796272635 3.82137570322175
20.7337535656989 4.17042275597789
20.7542275041342 4.95959273825297
20.7747014425695 5.87898981671364
20.7951753810048 6.87522857469324
20.8156493194401 8.07851734552509
20.8361232578754 8.85604362920921
20.8565971963108 9.56588034241226
20.8770711347461 9.36688165180091
20.8975450731814 8.27076630737514
20.9180190116167 6.85826347580164
20.938492950052 5.61505024041373
20.9589668884873 4.59841826787809
20.9794408269227 3.72503422486137
20.999914765358 3.31651269469692
21.0203887037933 2.70618701071806
21.0408626422286 2.28468217292479
21.0613365806639 1.75382109798378
21.0818105190992 1.56152045256171
21.1022844575346 1.14528023665856
21.1227583959699 0.826715033607668
21.1432323344052 0.509470676742374
21.1637062728405 0.386255499396009
21.1841802112758 0.311236168235237
21.2046541497111 0.305246016593394
21.2251280881464 0.258910044470479
21.2456020265818 0.250353251866492
21.2660759650171 0.226190222114766
21.2865499034524 0.129129288548635
21.3070238418877 0.231305867834765
21.327497780323 0.149907459973157
21.3479717187583 0.0867569816304758
21.3684456571937 0.16555234947339
21.388919595629 0.185772730168565
21.4093935340643 0.228147290382668
21.4298674724996 0.145540613449033
21.4503414109349 0.187952699367659
21.4708153493702 0.134029381471879
21.4912892878056 0.188197743095027
21.5117632262409 0.212436950903771
21.5322371646762 0.297892838231442
21.5527111031115 0.293523738411374
21.5731850415468 0.0352671514435676
21.5936589799821 0.208018910661356
21.6141329184175 0.0630810993980719
21.6346068568528 0.0978495509870494
21.6550807952881 0.0362825987616215
21.6755547337234 -0.0239635072782116
21.6960286721587 -0.038617933799117
21.716502610594 0.0131526525322387
21.7369765490294 -0.00927674828414338
21.7574504874647 -0.0863748862482652
21.7779244259 0.0175353219732082
21.7983983643353 0.0185997097136092
21.8188723027706 -0.0558379730270615
21.8393462412059 -0.0343462008518349
21.8598201796412 0.0652893341756529
21.8802941180766 -0.115004284611265
21.9007680565119 -0.025747890545921
21.9212419949472 -0.0510560669616491
21.9417159333825 0.107248269474884
21.9621898718178 -0.0182827979029883
21.9826638102531 0.0840694809047338
22.0031377486885 0.0510238558980505
22.0236116871238 0.0401324104102954
22.0440856255591 0.212853477774801
22.0645595639944 0.148614141324903
22.0850335024297 0.152101901060598
22.105507440865 0.112639673648555
22.1259813793004 0.235956625755439
22.1464553177357 0.174396507381252
22.166929256171 0.332907235192659
22.1874031946063 0.348207559189661
22.2078771330416 0.294516229372257
22.2283510714769 0.458291579073782
22.2488250099123 0.442398191627568
22.2692989483476 0.451263150366949
22.2897728867829 0.395042705291924
22.3102468252182 0.595351439735827
22.3307207636535 0.408960187031991
22.3511947020888 0.451754363847083
22.3716686405241 0.506286053514437
22.3921425789595 0.554326089367385
22.4126165173948 0.397957804739261
22.4330904558301 0.591868699630065
22.4535643942654 0.429027524039797
22.4740383327007 0.626882194635124
22.494512271136 0.642463961416045
22.5149862095714 0.790876991049228
22.5354601480067 0.882017116868005
22.555934086442 1.27656142220571
22.5764080248773 1.60341615706234
22.5968819633126 1.55268548810457
22.6173559017479 1.62306733199906
22.6378298401833 1.59060335541248
22.6583037786186 1.54643939167816
22.6787777170539 1.43458585746276
22.6992516554892 1.52587608609963
22.7197255939245 1.45442466092209
22.7401995323598 1.47413783193015
22.7606734707952 1.56288018245713
22.7811474092305 1.54877671250305
22.8016213476658 1.66099408873455
22.8220952861011 1.60526147781832
22.8425692245364 1.64720387975435
22.8630431629717 1.49906087787598
22.8835171014071 1.4538012221832
22.9039910398424 1.31220616267601
22.9244649782777 1.19927569935442
22.944938916713 1.31943691555176
22.9654128551483 1.21826272793469
22.9858867935836 1.29419063650321
23.0063607320189 1.29852272459067
23.0268346704543 1.47474857553038
23.0473086088896 1.62755568932236
23.0677825473249 1.72048573263326
23.0882564857602 1.88895537212976
23.1087304241955 2.13296460781185
23.1292043626308 2.27673218967954
23.1496783010662 2.54031020106616
23.1701522395015 2.95755280863837
23.1906261779368 3.41387667906284
23.2111001163721 3.68532347900624
23.2315740548074 4.13908070846857
23.2520479932427 4.39754420078316
23.2725219316781 4.36956812261668
23.2929958701134 4.53171497396912
23.3134698085487 4.51809933817383
23.333943746984 4.50580454856413
23.3544176854193 4.45967435514003
23.3748916238546 4.60496917456818
23.39536556229 4.5276265068486
23.4158395007253 4.93077135198128
23.4363134391606 5.16075787663289
23.4567873775959 5.24753399747009
23.4772613160312 5.52573513115955
23.4977352544665 5.50968419436795
23.5182091929019 5.14729785376193
23.5386831313372 4.72243027600818
23.5591570697725 4.32492521110669
23.5796310082078 3.84801182572412
23.6001049466431 3.29169011986049
23.6205788850784 2.94502259351578
23.6410528235137 2.54368633002334
23.6615267619491 2.30382716271648
23.6820007003844 2.09263259159523
23.7024746388197 1.74864428332623
23.722948577255 1.60259140457616
23.7434225156903 1.33546353867836
23.7638964541256 1.10090651896615
23.784370392561 0.850743262106196
23.8048443309963 0.627942518098508
23.8253182694316 0.609587620276413
23.8457922078669 0.580834818639913
23.8662661463022 0.486996613189008
23.8867400847375 0.415312587257031
23.9072140231729 0.328022324177315
23.9276879616082 0.331896657283194
23.9481619000435 0.165216836574667
23.9686358384788 0.213399528718402
23.9891097769141 0.169153067047731
24.0095837153494 0.124925368229322
24.0300576537848 0.08722684892984
24.0505315922201 0.157620009149287
24.0710055306554 0.0730840155543278
24.0914794690907 0.0341397014782969
24.111953407526 0.00563081692119427
24.1324273459613 0.0122969452163524
24.1529012843966 0.0359089196971056
24.173375222832 0.12985215703012
24.1938491612673 0.184751657215395
24.2143230997026 0.160242836919599
24.2347970381379 0.176117362809397
24.2552709765732 0.0904481515514566
24.2757449150085 0.240474786479111
24.2962188534439 0.0923431009256928
24.3166927918792 -0.0505614884421304
24.3371667303145 -0.0202702316243593
24.3576406687498 0.03608145471234
24.3781146071851 -0.0533814294320325
24.3985885456204 -0.0347991607374696
24.4190624840558 0.0306768708093546
24.4395364224911 -0.0353387514582266
24.4600103609264 -0.0153981108735466
24.4804842993617 -0.0592407907699384
24.500958237797 0.0151157354460012
24.5214321762323 0.0751681078475355
24.5419061146677 0.102687159767998
24.562380053103 0.0625166412073881
24.5828539915383 0.153875302165706
24.6033279299736 0.112440225976286
24.6238018684089 0.143940579305794
24.6442758068442 0.148115945487563
24.6647497452796 0.264289241188259
24.6852236837149 0.151314633074551
24.7056976221502 0.242785871146437
24.7261715605855 0.342088372070584
24.7466454990208 0.200524219180326
24.7671194374561 0.312885079142329
24.7875933758914 0.177868868623261
24.8080673143268 0.14313183762312
24.8285412527621 0.0875802361419069
24.8490151911974 0.280745314179622
24.8694891296327 0.158824988402932
24.889963068068 0.275204675478503
24.9104370065033 0.344728125406335
24.9309109449387 0.261926588186429
24.951384883374 0.340602147152117
24.9718588218093 0.345077718970067
24.9923327602446 0.439415803640277
25.0128066986799 0.466064317829416
25.0332806371152 0.503148261537483
25.0537545755506 0.537646801431144
25.0742285139859 0.396382854177067
25.0947024524212 0.533783503108584
25.1151763908565 0.628234164892363
25.1356503292918 0.37765150619507
25.1561242677271 0.427868860350038
25.1765982061625 0.4833133106906
25.1970721445978 0.396849440550091
25.2175460830331 0.363789749928509
25.2380200214684 0.338561322159189
25.2584939599037 0.166216240575463
25.278967898339 0.242587838510666
25.2994418367743 0.286426115964796
25.3199157752097 0.259970656271187
25.340389713645 0.068169376096507
25.3608636520803 0.242272275440754
25.3813375905156 0.166393937637263
25.4018115289509 0.211628112686033
25.4222854673862 0.0993289672537312
25.4427594058216 0.134184001340357
25.4632333442569 0.180776548279245
25.4837072826922 0.192231608070393
25.5041812211275 0.227142930713803
25.5246551595628 0.0810834328761412
25.5451290979981 0.129053114557407
25.5656030364335 0.109333225757601
25.5860769748688 0.214632099810056
25.6065509133041 0.176720570048106
25.6270248517394 0.153150719805084
25.6474987901747 0.119182965747656
25.66797272861 0.206327724542489
25.6884466670454 0.241407912856251
25.7089206054807 0.340308947355607
25.729394543916 0.259541244707225
25.7498684823513 0.276448554911104
25.7703424207866 0.432697544633911
25.7908163592219 0.315527797208978
25.8112902976573 0.370251812636308
25.8317642360926 0.387234174249231
25.8522381745279 0.51881863204775
25.8727121129632 0.40823435269853
25.8931860513985 0.470845919534905
25.9136599898338 0.528267915890207
25.9341339282691 0.514094091764437
25.9546078667045 0.63275153049093
25.9750818051398 0.560021482069683
25.9955557435751 0.505539363167363
26.0160296820104 0.508367673783973
26.0365036204457 0.50991266391951
26.056977558881 0.400799333573974
26.0774514973164 0.290402682747367
26.0979254357517 0.328462294773022
26.118399374187 0.23893650298427
26.1388733126223 0.252294057381114
26.1593472510576 0.151087041296885
26.1798211894929 0.203544621398251
26.2002951279283 0.101073047685212
26.2207690663636 0.1613806534911
26.2412430047989 -0.0361054778507495
26.2617169432342 0.115385486992995
26.2821908816695 0.106738964689001
26.3026648201048 0.134569538570601
26.3231387585402 0.241845958637796
26.3436126969755 0.152526558223919
26.3640866354108 0.150465503995637
26.3845605738461 0.210923212619616
26.4050345122814 0.28832676742919
26.4255084507167 0.286322001757691
26.4459823891521 0.346835998938454
26.4664563275874 0.413879175638145
26.4869302660227 0.352034865190097
26.507404204458 0.486823900927644
26.5278781428933 0.385954616184119
26.5483520813286 0.397083260959521
26.5688260197639 0.341824418587185
26.5892999581993 0.356896839067111
26.6097738966346 0.368081772399297
26.6302478350699 0.366264635250412
26.6507217735052 0.369674594287121
26.6711957119405 0.344457482842758
26.6916696503758 0.307540384250656
26.7121435888112 0.351371215177483
26.7326175272465 0.257199975623237
26.7530914656818 0.219037082254586
26.7735654041171 0.278549201738196
26.7940393425524 0.352403000740735
26.8145132809877 0.2335672292622
26.8349872194231 0.280114803969261
26.8554611578584 0.36053530819525
26.8759350962937 0.270401658606834
26.896409034729 0.315703438537345
26.9168829731643 0.245138564653451
26.9373569115996 0.317821620288485
26.957830850035 0.268127605442447
26.9783047884703 0.264025270115337
26.9987787269056 0.319837530973821
27.0192526653409 0.211606054684567
27.0397266037762 0.193237091247574
27.0602005422115 0.262126473996176
27.0806744806468 0.193013786263706
27.1011484190822 0.114805278050163
27.1216223575175 0.112136366022216
27.1420962959528 0.199329966846529
27.1625702343881 0.190188163856438
27.1830441728234 0.0508567903852739
27.2035181112587 0.0651900130997052
27.2239920496941 0.0456878319997303
27.2444659881294 0.0626627470853502
27.2649399265647 0.0458022583565652
27.285413865 0.0367730324800406
27.3058878034353 0.0980750694557784
27.3263617418706 -0.0346145473828896
27.346835680306 0.0332354319640367
27.3673096187413 -0.0447291591701084
27.3877835571766 0.0570125125480072
27.4082574956119 0.0754396137850513
27.4287314340472 -0.0089791054589774
27.4492053724825 -0.0478061451840777
27.4696793109179 -0.0255088302608975
27.4901532493532 0.00852599751454441
27.5106271877885 -0.00299332852441947
27.5311011262238 0.0584227749555446
27.5515750646591 -0.00384027537889642
27.5720490030944 0.152665437138924
27.5925229415298 0.0344503291756719
27.6129968799651 0.0256289840646813
27.6334708184004 0.0545868184726188
27.6539447568357 0.0523134157328171
27.674418695271 0.00188169251194381
27.6948926337063 -0.00816668452333502
27.7153665721416 0.0195641179603143
27.735840510577 0.107209516629558
27.7563144490123 0.0269049281510629
27.7767883874476 -0.0559850641418371
27.7972623258829 -0.0308904034855484
27.8177362643182 0.0502126033563353
27.8382102027535 0.0349802063838132
27.8586841411889 -0.00497301106978054
27.8791580796242 0.0657696176622198
27.8996320180595 0.0766351759131485
27.9201059564948 0.0146028303496717
27.9405798949301 -0.0252753356948769
27.9610538333654 0.0950215111128356
27.9815277718008 0.109868370772809
28.0020017102361 0.124733993285044
28.0224756486714 0.110972545316208
28.0429495871067 0.207906943532965
28.063423525542 0.246266354601984
28.0838974639773 0.351050778523265
28.1043714024127 0.384239381963473
28.124845340848 0.414842581589276
28.1453192792833 0.541818710734006
28.1657932177186 0.533396936064332
28.1862671561539 0.548431424246919
28.2067410945892 0.555672175281767
28.2272150330245 0.50954627250221
28.2476889714599 0.473855799241581
28.2681629098952 0.336621588833212
28.2886368483305 0.281437391277106
28.3091107867658 0.24580320657326
28.3295847252011 0.32477111805501
28.3500586636364 0.21235154238902
28.3705326020718 0.266617396241958
28.3910065405071 0.193297846280491
28.4114804789424 0.159059559171286
28.4319544173777 0.288902534914341
28.452428355813 0.469545523509658
28.4729022942483 0.65932185829057
28.4933762326837 0.60172112259041
28.513850171119 0.626170399742511
28.5343241095543 0.668867606413539
28.5547980479896 0.641271075936829
28.5752719864249 0.641037058312381
28.5957459248602 0.65514472020686
28.6162198632956 0.548177394953601
28.6366938017309 0.572739249219269
28.6571677401662 0.486642783003866
28.6776416786015 0.433117162974057
28.6981156170368 0.457735305796509
28.7185895554721 0.542268044804557
28.7390634939075 0.397652879998198
28.7595374323428 0.564254394710768
28.7800113707781 0.561603838942266
28.8004853092134 0.607149129359358
28.8209592476487 0.578494432628712
28.841433186084 0.568087665416994
28.8619071245193 0.579835077724203
28.8823810629547 0.58248666955034
28.90285500139 0.465365357562072
28.9233289398253 0.461544058426066
28.9438028782606 0.581439438808988
28.9642768166959 0.508645248710837
28.9847507551312 0.405921904798281
29.0052246935666 0.53889440707132
29.0256986320019 0.477875255529953
29.0461725704372 0.549687366840847
29.0666465088725 0.560320324337336
29.0871204473078 0.589201211352754
29.1075943857431 0.580340444553765
29.1280683241785 0.609258857273705
29.1485422626138 0.586112699512573
29.1690162010491 0.816891554603702
29.1894901394844 0.789876672547092
29.2099640779197 0.842307636676077
29.230438016355 1.05100736365732
29.2509119547904 0.984986270157497
29.2713858932257 1.04007768950993
29.291859831661 1.05742745504796
29.3123337700963 1.02141056677159
29.3328077085316 0.93332910801414
29.3532816469669 0.704641412108954
29.3737555854023 0.72987872905603
29.3942295238376 0.527270225522033
29.4147034622729 0.512180484840297
29.4351774007082 0.42158867367749
29.4556513391435 0.41955729203361
29.4761252775788 0.302961339908659
29.4965992160141 0.233259150635969
29.5170731544495 0.213054890882206
29.5375470928848 0.213702727314038
29.5580210313201 0.177910993264799
29.5784949697554 0.26713802206782
29.5989689081907 0.19492548038977
29.619442846626 0.224294201563981
29.6399167850614 0.0362337689237864
29.6603907234967 0.193244182469186
29.680864661932 0.0898566922001811
29.7013386003673 0.154456714783437
29.7218125388026 0.151367166885621
29.7422864772379 0.119650548506733
29.7627604156733 0.119202692980106
29.7832343541086 0.104450683639074
29.8037082925439 0.0454466038169699
29.8241822309792 0.120575870180461
29.8446561694145 0.0642134827295457
29.8651301078498 0.123755274797559
29.8856040462852 0.0960762463845
29.9060779847205 0.0892493141570352
29.9265519231558 0.116295311448499
29.9470258615911 0.104297571592224
29.9674998000264 0.0923185945882101
29.9879737384617 0.115514630436458
30.008447676897 0.123104429136967
30.0289216153324 0.133317157356403
30.0493955537677 0.0641215650947677
30.069869492203 0.174632235685394
30.0903434306383 0.210942919128281
30.1108173690736 0.102741115423429
30.1312913075089 0.219818491237507
30.1517652459443 0.355143796570511
30.1722391843796 0.39022744808911
30.1927131228149 0.276892362459971
30.2131870612502 0.297690623016426
30.2336609996855 0.318507646425142
30.2541349381208 0.341947599352787
30.2746088765562 0.271656315132692
30.2950828149915 0.248258793764859
30.3155567534268 0.157171701915954
30.3360306918621 0.213238789585977
30.3565046302974 0.182085056774928
30.3769785687327 0.199127170149473
30.3974525071681 0.269573463042946
30.4179264456034 0.228059352122014
30.4384003840387 0.16963692072001
30.458874322474 0.271389502170268
30.4793482609093 0.25336917980612
30.4998221993446 0.243180120294233
30.52029613778 0.204363990301274
30.5407700762153 0.19421245649391
30.5612440146506 0.217933852205474
30.5817179530859 0.207819844102632
30.6021918915212 0.130016265518719
30.6226658299565 0.1277522831204
30.6431397683918 0.150246646907675
30.6636137068272 0.163645190213879
30.6840876452625 0.173156246372344
30.7045615836978 0.0759152320497367
30.7250355221331 0.210463813912724
30.7455094605684 0.28122907529464
30.7659833990037 0.182742266195483
30.7864573374391 0.196253386615254
30.8069312758744 0.23452285322062
30.8274052143097 0.209008999344914
30.847879152745 0.184815991654803
30.8683530911803 0.220537580150286
30.8888270296156 0.165132098164698
30.909300968051 0.169641212364703
30.9297749064863 0.185887839416971
30.9502488449216 0.138351145988165
30.9707227833569 0.0934373820782886
30.9911967217922 0.34020904768734
31.0116706602275 0.192468226148652
31.0321445986629 0.215319084128892
31.0526185370982 0.218657454961394
31.0730924755335 0.198577088646156
31.0935664139688 0.234505068516514
31.1140403524041 0.220972644572466
31.1345142908394 0.104594400147346
31.1549882292748 0.238234918574487
31.1754621677101 0.089342116520557
31.1959361061454 0.230832660652221
31.2164100445807 0.269477384302813
31.236883983016 0.124547120805666
31.2573579214513 0.217916870160781
31.2778318598866 0.11338871570149
31.298305798322 0.156014740761127
31.3187797367573 0.179128278673025
31.3392536751926 0.096791829437185
31.3597276136279 0.16030747638694
31.3802015520632 0.0675918861889548
31.4006754904985 0.0816658921765652
31.4211494289339 0.106175327683103
31.4416233673692 0.0551826927085695
31.4620973058045 0.0849379872529639
31.4825712442398 0.104295377982953
31.5030451826751 0.0702861148985359
31.5235191211104 0.0519206146663806
31.5439930595458 0.0505009606198199
31.5644669979811 0.107693819425521
31.5849409364164 0.0112596077501492
31.6054148748517 -0.0200516744062942
31.625888813287 0.0176662229561899
31.6463627517223 0.0332674665042694
31.6668366901577 -0.0305396104287237
31.687310628593 0.000724158823878218
31.7077845670283 -0.000545392404591727
31.7282585054636 0.0646100692191991
31.7487324438989 0.0477530436952516
31.7692063823342 -0.0198664689764352
31.7896803207695 0.0961265312041397
31.8101542592049 -0.0391637890963574
31.8306281976402 0.0534292367887397
31.8511021360755 0.0796347755260989
31.8715760745108 -0.0178388395509477
31.8920500129461 -0.0150332751090663
31.9125239513814 0.0515931355184096
31.9329978898168 0.10782164233148
31.9534718282521 0.0182355786634787
31.9739457666874 0.00549119451440538
31.9944197051227 0.0826093232175935
32.014893643558 0.0816212147730424
32.0353675819933 0.0220581191807527
32.0558415204287 0.0471492031073912
32.076315458864 0.0436132165529575
32.0967893972993 0.0466064095174519
32.1172633357346 0.044410032000874
32.1377372741699 0.0487428340032245
32.1582112126052 0.154656898857836
32.1786851510406 -0.00763944010195772
32.1991590894759 -0.0605420162094905
32.2196330279112 0.00724616648550791
32.2401069663465 0.0281781120327671
32.2605809047818 -0.0159753462343797
32.2810548432171 0.0700982916840691
32.3015287816525 0.0390031924547789
32.3220027200878 0.0300622727444164
32.3424766585231 0.137025532552982
32.3629505969584 0.0369763052138095
32.3834245353937 -0.0122729092731024
32.403898473829 0.122090389092247
32.4243724122643 0.122357866976525
32.4448463506997 0.0497274410463968
32.465320289135 0.093001194635197
32.4857942275703 0.0790020444095918
32.5062681660056 0.0754383237029148
32.5267421044409 0.117466282515165
32.5472160428762 0.0644609208463438
32.5676899813116 0.140380572029784
32.5881639197469 0.0444439860654853
32.6086378581822 0.160765746286781
32.6291117966175 0.144293769360338
32.6495857350528 0.0783613886194898
32.6700596734881 0.0176561040642362
32.6905336119235 0.0728549990279108
32.7110075503588 0.135885156843846
32.7314814887941 0.00492366084537688
32.7519554272294 0.114866344365835
32.7724293656647 0.038629874071888
32.7929033041 -0.0558170000364644
32.8133772425354 0.0971507220407777
32.8338511809707 0.0313872069702812
32.854325119406 0.0463716214187127
32.8747990578413 0.0379372987194055
32.8952729962766 0.0803029888723594
32.9157469347119 0.061489525210908
32.9362208731472 -0.0198051755982822
32.9566948115826 0.131991803111456
32.9771687500179 0.0976096280067884
32.9976426884532 0.0411107990877153
33.0181166268885 -0.0739630169790961
33.0385905653238 0.0362423464730204
33.0590645037591 -0.0475439438892684
33.0795384421945 -0.0128218880659627
33.1000123806298 0.00889809727627089
33.1204863190651 -0.0592069045292343
33.1409602575004 0.00421727318418874
33.1614341959357 -0.018277286250127
33.181908134371 0.0647156671678184
33.2023820728064 -0.0319601165619747
33.2228560112417 -0.0192421374395066
33.243329949677 -0.101557478798111
33.2638038881123 0.0199027006204755
33.2842778265476 -0.0226808571086774
33.3047517649829 0.0037647646810981
33.3252257034183 -0.00232293401019867
33.3456996418536 -0.00969395318256772
33.3661735802889 0.0115996238306582
33.3866475187242 0.0159848803628122
33.4071214571595 0.0503368164138938
33.4275953955948 0.100332515317237
33.4480693340302 0.119096977072841
33.4685432724655 0.0727760350140403
33.4890172109008 0.0733488558075002
33.5094911493361 0.0387841894532219
33.5299650877714 0.0979882859512049
33.5504390262067 0.0764819786347823
33.570912964642 0.0602027675039543
33.5913869030774 0.145504819225387
33.6118608415127 0.0576485504657491
33.632334779948 0.0778839612250384
33.6528087183833 0.0408464681699225
33.6732826568186 0.0363798213004007
33.6937565952539 0.0918277706164743
33.7142305336893 0.0756798994514754
33.7347044721246 0.0751757911387381
33.7551784105599 0.029117529011595
33.7756523489952 -0.0429636369299533
33.7961262874305 -0.0293354948458622
33.8166002258658 0.0520197434238234
33.8370741643012 -0.0397833387875628
33.8575481027365 0.048119841853312
33.8780220411718 0.00713553534644817
33.8984959796071 -0.0377362583081542
33.9189699180424 0.0228794608895047
33.9394438564777 0.00669102627275819
33.9599177949131 -0.0224994788250605
33.9803917333484 0.0772350289293819
34.0008656717837 0.0090195495360863
34.021339610219 -0.0123021670049486
34.0418135486543 0.108321962639611
34.0622874870896 0.0766211051364325
34.082761425525 0.0605640104855152
34.1032353639603 -0.0114639046464742
34.1237093023956 0.0415269430737975
34.1441832408309 0.0841198869796638
34.1646571792662 0.0460024270711248
34.1851311177015 0.093841230014847
34.2056050561368 0.0375321291441642
34.2260789945722 -0.0343832088742577
34.2465529330075 -0.00862353404041816
34.2670268714428 -0.00237634635431716
34.2875008098781 0.0169104375173781
34.3079747483134 0.0609555675746682
34.3284486867487 0.00736321048421962
34.3489226251841 -0.0279812170873008
34.3693965636194 -0.0346610484732268
34.3898705020547 -0.00616586700689159
34.41034444049 -0.00890192268829493
34.4308183789253 -0.0324525488507703
34.4512923173606 -0.0507760788276512
34.471766255796 0.0330204132203902
34.4922401942313 0.00225233478735953
34.5127141326666 0.0313988525399236
34.5331880711019 0.0319182998114156
34.5536620095372 0.0741231766018355
34.5741359479725 0.0238988995778502
34.5946098864079 0.028380885406126
34.6150838248432 -0.00357669924666992
34.6355577632785 -0.00686968771387164
34.6560317017138 0.0054810866711883
34.6765056401491 -0.0186077094248243
34.6969795785844 0.0159160073314248
34.7174535170197 -0.0172498463933981
34.7379274554551 -0.0048240205992931
34.7584013938904 -0.0158169319529269
34.7788753323257 0.044823502879034
34.799349270761 0.141941033896589
34.8198232091963 0.132306494433073
34.8402971476316 0.150034467821818
34.860771086067 0.0805416207294907
34.8812450245023 -0.0436199635105754
34.9017189629376 0.07833096510162
34.9221929013729 0.17035273989941
34.9426668398082 0.121768277549461
34.9631407782435 0.100546328051774
34.9836147166789 0.170488974739681
35.0040886551142 0.188367050946516
35.0245625935495 0.232305556672279
35.0450365319848 0.28277324191697
35.0655104704201 0.160082606680589
35.0859844088554 0.20928573429647
35.1064583472908 0.171268041431278
35.1269322857261 0.158008694751681
35.1474062241614 0.198153527591012
35.1678801625967 0.043004623282604
35.188354101032 0.113134898493124
35.2088280394673 0.162450603222572
35.2293019779027 0.210482987470948
35.249775916338 0.272857051238252
35.2702498547733 0.445926961191151
35.2907237932086 0.382036467329644
35.3111977316439 0.437956402987066
35.3316716700792 0.413165934830081
35.3521456085145 0.303758812858692
35.3726195469499 0.475620453739564
35.3930934853852 0.34020919080603
35.4135674238205 0.303775024058091
35.4340413622558 0.26996378682908
35.4545153006911 0.221848395785664
35.4749892391264 0.254480934261175
35.4954631775618 0.264996818922282
35.5159371159971 0.0984481331023159
35.5364110544324 0.200147376801278
35.5568849928677 0.144313300019168
35.577358931303 0.195268819422653
35.5978328697383 0.185045185011732
35.6183068081737 0.125361146786406
35.638780746609 0.078716704746675
35.6592546850443 0.103705608892538
35.6797286234796 0.113088275890663
35.7002025619149 0.126395955741049
35.7206765003502 0.0889411484436959
35.7411504387856 0.0332759373319378
35.7616243772209 0.00367115573910737
35.7820983156562 0.0821580536652053
35.8025722540915 0.0356637144435643
35.8230461925268 0.128511054740851
35.8435201309621 0.0612209078903996
35.8639940693974 0.0694703572255424
35.8844680078328 0.0438844027462801
35.9049419462681 -0.0402765388807211
35.9254158847034 0.0383416990112058
35.9458898231387 0.0154161997553937
35.966363761574 0.0758427966851765
35.9868377000093 -0.049909760199446
36.0073116384447 0.0235751957681924
36.02778557688 0.0671309979214259
36.0482595153153 0.0260701462602537
36.0687334537506 0.0527363907846763
36.0892073921859 0.0208276481613601
36.1096813306212 -0.0410102482763615
36.1301552690566 -0.0223910297538275
36.1506292074919 0.0899969516209678
36.1711031459272 0.0461536958480244
36.1915770843625 0.0153500362606755
36.2120510227978 0.0288359728589214
36.2325249612331 -0.0501072443572381
36.2529988996685 0.0141974679455303
36.2734728381038 -0.0412707235661065
36.2939467765391 0.0699465144411844
36.3144207149744 0.0626929319674034
36.3348946534097 0.107541445679217
36.355368591845 0.147200388909959
36.3758425302804 0.113961428326295
36.3963164687157 0.095064147261559
36.416790407151 0.112643962382418
36.4372643455863 0.260450873688871
36.4577382840216 0.167391131180919
36.4782122224569 0.251433484858562
36.4986861608922 0.190963351388466
36.5191600993276 0.165668230770631
36.5396340377629 0.218516873005058
36.5601079761982 0.171123861425079
36.5805819146335 0.212291279364028
36.6010558530688 0.141498293488572
36.6215297915041 0.11108865379871
36.6420037299395 0.167937360294443
36.6624776683748 0.118033996309104
36.6829516068101 0.10070147850936
36.7034255452454 0.169325223561877
36.7238994836807 0.0986448147999888
36.744373422116 0.215483168890362
36.7648473605514 0.130517369166329
36.7853212989867 0.0716119989612245
36.805795237422 0.0400691416083812
36.8262691758573 0.129638797107799
36.8467431142926 0.0668834654594785
36.8672170527279 0.125240646663419
36.8876909911633 0.0351790907196212
36.9081649295986 -0.00278036903858236
36.9286388680339 0.0686539340554757
36.9491128064692 0.055471583335128
36.9695867449045 0.0397038288003753
36.9900606833398 0.0369756704512172
37.0105346217752 0.0694225249543201
37.0310085602105 0.045898558976351
37.0514824986458 0.0848933558506433
37.0719564370811 0.13692774891053
37.0924303755164 0.100439238156012
37.1129043139517 0.0874069902537549
37.133378252387 0.0717893385370922
37.1538521908224 0.083534199672691
37.1743261292577 0.191651990327218
37.194800067693 0.0758302105006725
37.2152740061283 0.154037610193055
37.2357479445636 0.0642950227376993
37.2562218829989 0.0930607814679378
37.2766958214343 0.0827828030504376
37.2971697598696 0.128513170818532
37.3176436983049 0.122178968105555
37.3381176367402 0.141905194911505
37.3585915751755 0.0561814345697169
37.3790655136108 0.0616222704135234
37.3995394520462 0.0748943691095909
37.4200133904815 0.120737313991253
37.4404873289168 0.0116511050585102
37.4609612673521 0.0197711589780285
37.4814352057874 0.0721808090831413
37.5019091442227 0.0282550553738488
37.5223830826581 0.0872126478501509
37.5428570210934 0.0198869198453808
37.5633309595287 0.0346112046928724
37.583804897964 -0.0300728309407083
37.6042788363993 0.0888556462779724
37.6247527748346 -0.031780446984419
37.6452267132699 -0.0286998607278826
37.6657006517053 0.0603369883809153
37.6861745901406 0.0374134336753078
37.7066485285759 0.0874253084886283
37.7271224670112 -0.00186697051245655
37.7475964054465 -0.0468696533279469
37.7680703438818 0.00117618961317878
37.7885442823172 0.129969962073232
37.8090182207525 0.046542914052214
37.8294921591878 0.110270045550124
37.8499660976231 0.171411773233628
37.8704400360584 0.104968097102726
37.8909139744937 0.142709850490753
37.9113879129291 0.267709950064374
37.9318618513644 0.219551729156924
37.9523357897997 0.176620604435068
37.972809728235 0.161051992565473
37.9932836666703 0.178054226881473
38.0137576051056 0.113043974049734
38.034231543541 0.0441462340702568
38.0547054819763 0.141933923609707
38.0751794204116 0.174636209334752
38.0956533588469 0.156576007912059
38.1161272972822 0.063013736008293
38.1366012357175 0.145251476956789
38.1570751741529 0.025685064090879
38.1775491125882 0.0454603307438972
38.1980230510235 0.0548376935825101
38.2184969894588 -0.0125890973932825
38.2389709278941 0.0580237078165196
38.2594448663294 0.106519859211916
38.2799188047647 0.0886285234595745
38.3003927432001 0.0694538672261604
38.3208666816354 0.136235473845008
38.3413406200707 0.11449417664945
38.361814558506 0.143552892306153
38.3822884969413 0.143984537481784
38.4027624353766 0.18479952884301
38.423236373812 0.122768699723164
38.4437103122473 0.154506633455579
38.4641842506826 0.128971663373588
38.4846581891179 0.168559622810526
38.5051321275532 0.146968428433059
38.5256060659885 0.133208496907852
38.5460800044239 0.178061078234907
38.5665539428592 0.172151172414223
38.5870278812945 0.209228779445801
38.6075018197298 0.191637649329639
38.6279757581651 0.129794448732406
38.6484496966004 0.212501260987434
38.6689236350358 0.197570586094724
38.6893975734711 0.217814924054274
38.7098715119064 0.179484274866086
38.7303454503417 0.225807805196826
38.750819388777 0.177098015046494
38.7712933272123 0.207834071081757
38.7917672656477 0.209943056635947
38.812241204083 0.217279138375732
38.8327151425183 0.124373566301112
38.8531890809536 0.0705492570787527
38.8736630193889 0.157368710708655
38.8941369578242 0.196029843857485
38.9146108962595 0.104501406525243
38.9350848346949 0.111950065378596
38.9555587731302 0.0334799870842104
38.9760327115655 0.112580754975419
38.9965066500008 0.101856535718889
39.0169805884361 0.0781302459812874
39.0374545268714 0.0934852190959468
39.0579284653068 0.104952705062867
39.0784024037421 0.0851889538820494
39.0988763421774 0.0511210488868259
39.1193502806127 0.247540656743864
39.139824219048 0.144499860786496
39.1602981574833 0.0766340776813901
39.1807720959187 0.154620390761878
39.201246034354 0.0542400500279614
39.2217199727893 0.0997118054796391
39.2421939112246 0.158223157116911
39.2626678496599 0.0683157716064451
39.2831417880952 0.0773854822815732
39.3036157265306 0.0135572891422961
39.3240896649659 0.0135499421886136
39.3445636034012 0.0435092747538588
39.3650375418365 0.0500498701713656
39.3855114802718 0.0852550617744672
39.4059854187071 0.035843599563163
39.4264593571424 0.0958259002041204
39.4469332955778 0.0269207136973391
39.4674072340131 0.0739197067094854
39.4878811724484 -0.00536462075944
39.5083551108837 -0.0703072687094375
39.528829049319 0.0050902468094991
39.5493029877543 -0.0679309748193031
39.5697769261897 0.0426603164041559
39.590250864625 0.0347807871465431
39.6107248030603 -0.00693414592547525
39.6311987414956 -0.0199844828118989
39.6516726799309 -0.0186931401793944
39.6721466183662 -0.0304038680279624
39.6926205568016 0.0151958336423981
39.7130944952369 0.0516997148316862
39.7335684336722 0.0061911088732356
39.7540423721075 -0.0340904008996203
39.7745163105428 0.0220010188464519
39.7949902489781 -0.0143367152218814
39.8154641874135 -0.0181036031046202
39.8359381258488 -0.00232047813509739
39.8564120642841 0.0369189096866864
39.8768860027194 -0.0956979396392683
39.8973599411547 -0.0409690956316466
39.91783387959 -0.0114586355431734
39.9383078180254 0.0662476707308948
39.9587817564607 0.0814727398572241
39.979255694896 0.0511436551691484
39.9997296333313 0
